time,x,y,theta,left_vel,right_vel
0.0,1.0,0.0,1.5707963267948966,0.1466076571675237,0.2523247432883231
0.05,0.999950266955943,0.009972648681649012,1.5807711249635021,0.14655423631267256,0.2523186487091234
0.1,0.9998010727705235,0.019941329700552457,1.5907548553317998,0.14639396316885045,0.25230044069032204
0.15000000000000002,0.9995524322835033,0.029902076972517087,1.6007564663837928,0.14612680601882982,0.25227034646145513
0.2,0.9992043702261793,0.03985092756982624,1.6107849391819025,0.1457527120712669,0.25222874498047315
0.25,0.9987569212189223,0.04978392329790833,1.6208493036799387,0.14527160757418214,0.2521761672906436
0.30000000000000004,0.9982101297677352,0.05969711227012218,1.6309586550625144,0.144683397988838,0.25211329700768986
0.35000000000000003,0.9975640502598242,0.06958655048003273,1.6411221701162326,0.14398796823938154,0.2520409709242581
0.4,0.996818746958191,0.07944830337055164,1.6513491236348743,0.14318518305853037,0.25196017971457196
0.45,0.9959742939952391,0.08927844739931834,1.6616489048568255,0.14227488745489,0.251872068717472
0.5,0.9950307753654014,0.09907307159969879,1.672031033928001,0.1412569073332975,0.25177793877085225
0.55,0.9939882849167853,0.10882827913678116,1.6825051783774467,0.1401310503059948,0.2516792470646786
0.6000000000000001,0.9928469263418374,0.11854018885774877,1.6930811695855092,0.1388971067395499,0.2515776079731878
0.65,0.9916068131670303,0.1282049368360142,1.703769019215791,0.1375548510903851,0.25147479381939053
0.7000000000000001,0.9902680687415704,0.1378186779084996,1.7145789355718974,0.136104043590654,0.2513727355165032
0.75,0.9888308262251285,0.1473775872054521,1.7255213398280298,0.1345444323561686,0.2512735230212642
0.8,0.9872952285745957,0.1568778616721852,1.7366068820685487,0.13287575599923013,0.25117940552309825
0.8500000000000001,0.985661428529863,0.166315721582141,1.747846457055492,0.13109774684171294,0.25109279128061446
0.9,0.9839295885986297,0.17568741204067137,1.759251219624386,0.1292101348377065,0.2510162470028048
0.9500000000000001,0.9820998810402388,0.18498920447893943,1.7708325995872352,0.12721265233057144,0.2509524966563691
1.0,0.9801724878485438,0.19421739813734737,1.7826023159969877,0.125105039786522,0.2509044195626908
1.05,0.9781476007338057,0.2033683215379001,1.7945723905996698,0.12288705266590345,0.2508750476279617
1.1,0.9760254211036244,0.21243833394491923,1.806755160268421,0.12055846961425305,0.2508675615276926
1.1500000000000001,0.9738061600429063,0.2214238268135258,1.819163288177412,0.11811910217802014,0.25088528564225826
1.2000000000000002,0.9714900382928674,0.23032122522531617,1.8318097734327112,0.11556880627443814,0.2509316815131897
1.25,0.969077286229078,0.23912698931065912,1.8447079588312132,0.1129074956713204,0.2510103395606872
1.3,0.9665681438385472,0.24783761565704884,1.8578715363673572,0.11013515776024267,0.2511249687714597
1.35,0.9639628606958532,0.2564496387029531,1.8713145500502868,0.10725187193522936,0.25127938403280115
1.4000000000000001,0.9612616959383189,0.2649596321166025,1.8850513955310917,0.10425783091804573,0.2514774907543098
1.4500000000000002,0.9584649182402357,0.2733642101591718,1.899096815970764,0.10115336539960336,0.25172326638359427
1.5,0.9555728057861407,0.28166002903181103,1.91346589350459,0.0979389723935678,0.2520207383877741
1.55,0.9525856462431461,0.28984378820599116,1.9281740355782542,0.09461534772137738,0.2523739582400438
1.6,0.9495037367323264,0.2979122317366337,1.9432369553456488,0.09118342306539129,0.25278697092198243
1.6500000000000001,0.9463273837991641,0.3058621495575032,1.9586706452294125,0.0876444080360597,0.25326377943020273
1.7000000000000002,0.9430569033830605,0.31369037875834627,1.9744913426542365,0.0839998376964461,0.2538083037635581
1.75,0.9396926207859083,0.3213938048432697,1.9907154868724186,0.08025162596894206,0.2544243338684741
1.8,0.9362348706397372,0.32896936296985635,2.007359665714217,0.07640212530956858,0.25511547603992935
1.85,0.9326839968734276,0.33641403916852647,2.0244405510165753,0.07245419296890789,0.25588509232000445
1.9000000000000001,0.9290403526785026,0.34372487154165904,2.041974821418181,0.06841126405860941,0.2567362325115546
1.9500000000000002,0.9253043004739967,0.35089895144199573,2.05997907116349,0.06427743150086132,0.25767155853916757
2.0,0.9214762118704076,0.3579334246298592,2.078469703541601,0.06005753274686154,0.2586932610516617
2.0500000000000003,0.9175564676327338,0.36482549240872547,2.097462807607776,0.05575724290045249,0.25980296837897415
2.1,0.9135454576426009,0.3715724127386971,2.1169740169076072,0.05138317356617901,0.2610016482404173
2.15,0.9094435808594821,0.37817150132743677,2.137018349059641,0.04694297634950509,0.262289502959299
2.2,0.9052512452810147,0.3846201326981244,2.1576100252662846,0.042445449465192284,0.26366585937744624
2.25,0.9009688679024191,0.3909157412340149,2.1787622691305737,0.03790064535568506,0.26512905518587454
2.3000000000000003,0.8965968746750208,0.3970558221991806,2.2004870845734557,0.03331997658766997,0.2666763239936081
2.35,0.8921357004638834,0.4030379327350311,2.2227950131872793,0.028716316591797242,0.2683036821376862
2.4000000000000004,0.8875857890045541,0.4088596928322157,2.245694872038323,0.024104091057314994,0.270005820976916
2.45,0.8829475928589269,0.41451878627752087,2.269193473752011,0.019499355021191267,0.2717760091819186
2.5,0.8782215733702285,0.42001296157538576,2.2932953316798623,0.014919849945052382,0.2736060102930311
2.5500000000000003,0.8734082006171298,0.4253400328436698,2.3180023540484203,0.010385034412940142,0.27548602150933454
2.6,0.8685079533669889,0.4304978806833158,2.3433135322062504,0.005916081583781901,0.27740464022487055
2.6500000000000004,0.8635213190282308,0.4354844530215621,2.369224629379287,0.001535836283521802,0.27934886515648316
2.7,0.8584487936018661,0.44029776592836906,2.395727877663477,-0.0027312752784829364,0.28130413891605266
2.75,0.8532908816321556,0.44493590440573433,2.422811692254302,-0.00685938963517993,0.2832544384692156
2.8000000000000003,0.8480480961564258,0.4493970231495835,2.450460413044533,-0.010821409405195936,0.28518241900076646
2.85,0.8427209586540392,0.45367934728393244,2.478654084607911,-0.014589269526229798,0.2870696152015139
2.9000000000000004,0.8373099989945233,0.4577811730670296,2.507368286110635,-0.018134267702915652,0.2888967018657376
2.95,0.831815755384869,0.46170086856919723,2.536574022735931,-0.021427457423274093,0.29064381295775976
3.0,0.8262387743159949,0.4654368743221021,2.5662376896609733,-0.024440098397004395,0.29229091505230076
3.0500000000000003,0.8205796105083915,0.46898770393919686,2.5963211184046955,-0.027144155408478476,0.29381822743432173
3.1,0.8148388268569449,0.47235194470708525,2.6267817134231297,-0.029512832608379003,0.29520667739575573
3.1500000000000004,0.8090169943749473,0.4755282581475768,2.657572684171804,-0.031521126510694386,0.2964383756924832
3.2,0.8031146921373018,0.47851538055020615,2.6886433745520444,-0.03314637778127416,0.29749709407343394
3.25,0.7971325072229225,0.481312123475006,2.71993968784815,-0.03436879967308565,0.29836872462226866
3.3000000000000003,0.7910710346563412,0.48391737422533326,2.751404601149776,-0.03517196001518391,0.29904169968214744
3.35,0.7849308773485225,0.48633009629056007,2.782978759097281,-0.03554319424136293,0.29950735160258496
3.4000000000000004,0.778712646036894,0.48854932975845466,2.8146011328797393,-0.03547392916000097,0.29976019356280015
3.45,0.7724169592245995,0.4905741916970863,2.8462097270536857,-0.03495990096240134,0.2997981062378897
3.5,0.766044443118978,0.49240387650610407,2.8777423142072096,-0.03400125611116073,0.29962241986370824
3.5500000000000003,0.7595957315692781,0.49403765623724805,2.9091371759826163,-0.03260252985180917,0.2992378869517097
3.6,0.7530714660036109,0.4954748808839674,2.940333828621928,-0.030772503641782384,0.2986525470215996
3.6500000000000004,0.7464722953651501,0.49671497864002784,2.9712737120433377,-0.02852394922614601,0.29787749071919023
3.7,0.739798876047584,0.49775745612700756,3.0019008234201197,-0.02587327285959498,0.29692653604581454
3.75,0.7330518718298263,0.49860189859059006,3.032162279148419,-0.022840077812354198,0.2958158337011113
3.8000000000000003,0.7262319538099931,0.49924797006557586,3.0620087927153627,-0.01944666647425322,0.2945634214226879
3.85,0.7193398003386511,0.4996954135095479,3.0913950600272604,-0.01571750492593163,0.2931887485466944
3.9000000000000004,0.7123760969513447,0.4999440509051367,3.1202800479300263,-0.011678672792653638,0.2917121918327287
3.95,0.7053415363004087,0.49999378333084593,-3.1345581215107603,-0.0073573197035346205,0.29015458206315436
4.0,0.6982368180860727,0.4998445910004081,-3.1067808445263494,-0.002781147033102588,0.2885367583202607
4.05,0.6910626489868646,0.49949653327065735,-3.079600868239475,0.002022069842137958,0.2868791635082534
4.1000000000000005,0.68381974258932,0.4989497486179132,-3.053041129970197,0.007024907408179182,0.28520149098035197
4.15,0.6765088193170051,0.498204454582888,-3.0271202005333357,0.0122006605785413,0.2835223883880614
4.2,0.6691306063588582,0.49726094768413664,-3.00185247710587,0.0175236462643307,0.2818592213674507
4.25,0.6616858375968594,0.49611960330008603,-2.9772484212119794,0.022969443541893758,0.28022789661976233
4.3,0.6541752535330345,0.49478087551968847,-2.953314830452117,0.02851507272427789,0.27864274145605183
4.3500000000000005,0.6465996012157996,0.4932452969617607,-2.9300551332925306,0.034139117720124915,0.27711643500980015
4.4,0.6389596341656558,0.49151347856307914,-2.9074696972343306,0.03982179750673083,0.27565998506858447
4.45,0.6312561123002389,0.4895861093353157,-2.8855561418831766,0.04554499340260025,0.2742827437817929
4.5,0.6234898018587336,0.4874639560909118,-2.8643096497415192,0.051292239179831126,0.27299245528306126
4.55,0.6156614753256583,0.48514786313799824,-2.8437232688615834,0.057048681005015686,0.27179532842659393
4.6000000000000005,0.6077719113540299,0.4826387519444837,-2.8237882027644012,0.06280101383944356,0.2706961282767574
4.65,0.5998218946879137,0.47993762077144453,-2.8044940842017847,0.06853740036005528,0.26969828061789536
4.7,0.5918122160843676,0.4770455442759621,-2.7858292303845573,0.07424737776510909,0.2688039844859106
4.75,0.5837436722347898,0.47396367308356585,-2.7677808782059663,0.0799217570716746,0.2680143284992914
4.800000000000001,0.5756170656856734,0.47069323333045154,-2.750335398749636,0.08555251874928863,0.26732940753480106
4.8500000000000005,0.5674332047587817,0.4672355261756577,-2.73347849099064,0.09113270780420418,0.2667484370162978
4.9,0.5591929034707467,0.46359192728339366,-2.7171953550860444,0.0966563307576003,0.26626986274101805
4.95,0.5508969814521024,0.4597638862757253,-2.701470846021017,0.10211825636408844,0.26589146474339015
5.0,0.5425462638657594,0.45575292615583657,-2.6862896086434565,0.10751412140068138,0.26561045418734186
5.050000000000001,0.5341415813249286,0.45156064270209584,-2.671636195299786,0.11284024242164774,0.26542356268526096
5.1000000000000005,0.5256837698105047,0.4471887038331684,-2.657495167392293,0.11809353401759756,0.2653271237703857
5.15,0.5171736705879126,0.4426388489444275,-2.6438511822282558,0.12327143383122341,0.2653171465070065
5.2,0.5086121301234315,0.4379128882159282,-2.630689066535759,0.12837183435932115,0.265389381418236
5.25,0.4999999999999999,0.4330127018922193,-2.6179938779914944,0.13339302140242384,0.26553937905342306
5.300000000000001,0.4913381368325113,0.42794023953427923,-2.6057509560513417,0.13833361890103862,0.2657625416154425
5.3500000000000005,0.4826274021826107,0.42269751924387494,-2.5939459633028163,0.1431925398130216,0.2660541681303539
5.4,0.4738686624729985,0.4172866268606512,-2.582564918475815,0.14796894263274366,0.2664094936756907
5.45,0.46506278890125036,0.4117097151322695,-2.5715942221594315,0.1526621931229606,0.26682372319534553
5.5,0.4562106573531629,0.4059690028579282,-2.561020676181816,0.15727183081916615,0.267292060424129
5.550000000000001,0.4473131483156324,0.400066774005603,-2.5508314975199067,0.16179753986904558,0.2678097324281314
5.6000000000000005,0.43837114678907724,0.39400537680336084,-2.5410143275185604,0.16623912378263284,0.26837201024170165
5.65,0.42938554219940894,0.387787222805106,-2.5315572371155164,0.1705964836888117,0.2689742260511262
5.7,0.4203572283095654,0.3814147859311332,-2.5224487286907427,0.17486959971843363,0.2696117873412326
5.75,0.4112871031306115,0.37489060148386705,-2.5136777350865462,0.17905851516166105,0.2702801883859335
5.800000000000001,0.4021760688324173,0.3682172651391808,-2.505233616278656,0.18316332307569363,0.27097501942845625
5.8500000000000005,0.39302503165392344,0.36139743191369567,-2.4971061541183013,0.1871841550477472,0.27169197386263794
5.9,0.3838349018130002,0.35443381510846944,-2.4892855455109832,0.1911211718462223,0.2724268536938427
5.95,0.37460659341591196,0.34732918522949857,-2.4817623943489235,0.1949745557198842,0.27317557352721866
6.0,0.365341024366395,0.3400863688854597,-2.4745277024707115,0.19874450413022612,0.2739341633023945
6.050000000000001,0.3560391162743565,0.3327082476631304,-2.4675728598831213,0.20243122472578107,0.27469876996744863
6.1000000000000005,0.34670179436420695,0.325197756980938,-2.460889634446037,0.20603493138887813,0.27546565826108244
6.15,0.3373299873828299,0.3175578849210893,-2.4544701611914617,0.20955584120519613,0.2762312107503442
6.2,0.32792462750720436,0.309791671040749,-2.4483069314213775,0.21299417222445824,0.2769919272518834
6.25,0.31848665025168443,0.3019022051627387,-2.4423927817063373,0.21635014189683371,0.2777444237474385
6.300000000000001,0.3090169943749473,0.2938926261462364,-2.4367208828867626,0.21962396608414889,0.278485430888928
6.3500000000000005,0.2995166017866191,0.28576612063796863,-2.4312847291616935,0.22281585855797822,0.27921179217495806
6.4,0.28998641745358605,0.27752592180438734,-2.4260781273348444,0.2259260309082124,0.27992046186863917
6.45,0.28042738930600275,0.2691753080453412,-2.421095186275021,0.22895469279590186,0.28060850271614246
6.5,0.27084046814300516,0.26071760168974906,-2.4163303066369655,0.23190205249318485,0.2812730835162911
6.550000000000001,0.2612266075381382,0.25215616767379695,-2.4117781708793333,0.23476831766103168,0.2819114765835228
6.6000000000000005,0.2515867637445084,0.24349441220218354,-2.4074337336085305,0.23755369632249795,0.28252105513964604
6.65,0.24192189559966767,0.23473578139294535,-2.4032922122703786,0.24025839799527618,0.28309929066383327
6.7,0.23223296443024255,0.22588375990640414,-2.399349078205908,0.24288263495265805,0.2836437502251228
6.75,0.22252093395631445,0.21694186955877912,-2.3956000480827995,0.24542662358667364,0.2841520938172582
6.800000000000001,0.21278677019556205,0.20791366792101632,-2.39204107571003,0.24789058585121737,0.28462207171187337
6.8500000000000005,0.2030314413671761,0.19880274690339406,-2.3886683442400156,0.2502747507664912,0.2850515218427635
6.9,0.19325591779555323,0.1896127313264642,-2.3854782587598464,0.25257935596915454,0.28543836723119426
6.95,0.18346117181378238,0.18034727747890184,-2.382467439271052,0.2548046492952164,0.2857806134598263
7.0,0.17364817766693022,0.17101007166283425,-2.379632714055609,0.2569508903850037,0.2860763462008225
7.050000000000001,0.1638179114151376,0.16160482872722992,-2.3769711134245286,0.2590183523015248,0.2863237288020023
7.1000000000000005,0.15397135083653354,0.15213529058992814,-2.3744798638443627,0.26100732315526437,0.28652099993347985
7.15,0.14410947532998014,0.14260522474890105,-2.3721563824361787,0.2629181077299266,0.28666647129602046
7.2,0.13423326581765532,0.1330184227833374,-2.3699982718410526,0.26475102910492726,0.286758525391354
7.25,0.12434370464748506,0.12337869884514671,-2.3680033154457942,0.2665064302715354,0.2867956133538513
7.300000000000001,0.11444177549543193,0.11368988814148066,-2.366169472962463,0.26818467574052157,0.2867762528422913
7.3500000000000005,0.10452846326765323,0.10395584540887944,-2.3644948763552174,0.26978615313998777,0.2866990259898857
7.4,0.09460475400253697,0.09418044337964827,-2.3629778261081493,0.2713112748027666,0.2865625774102796
7.45,0.08467163477262309,0.08436757124107236,-2.3616167878279537,0.27276047934338654,0.28636561225688417
7.5,0.07473009358642417,0.07452113308808714,-2.3604103891755743,0.27413423322512964,0.2861068943326174
7.550000000000001,0.0647811192901516,0.06464504637001638,-2.359357417121328,0.2754330323181671,0.2857852442469045
7.6000000000000005,0.054825701469359805,0.05474324033199829,-2.3584568155184193,0.27665740345015116,0.28539953761663556
7.65,0.044864830350514764,0.04481965445171659,-2.3577076829902377,0.2778079059509904,0.28494870330765426
7.7,0.03489949670250086,0.03487823687206254,-2.3571092711273036,0.27888513319382885,0.2844317217132805
7.75,0.024930691738072813,0.02492294283034852,-2.356660982990308,0.2798897141345163,0.2838476230663269
7.800000000000001,0.014959407015263384,0.014957733084698992,-2.3563623719162035,0.28082231485208026,0.28319548578105574
7.8500000000000005,0.004986634338757864,0.0049865723382461116,-2.356213140624932,0.2816836400929099,0.282474434821538
7.9,-0.004986634338758186,-0.0049865723382464325,-2.356213140624932,0.28247443482153806,0.28168364009290986
7.95,-0.014959407015263704,-0.014957733084699314,-2.3563623719162035,0.28319548578105574,0.28082231485208026
8.0,-0.024930691738072913,-0.024922942830348616,-2.356660982990308,0.2838476230663269,0.2798897141345163
8.05,-0.03489949670250118,-0.03487823687206286,-2.3571092711273036,0.28443172171328057,0.2788851331938288
8.1,-0.04486483035051486,-0.044819654451716685,-2.3577076829902377,0.28494870330765426,0.2778079059509904
8.15,-0.054825701469360125,-0.05474324033199861,-2.3584568155184193,0.28539953761663556,0.27665740345015116
8.200000000000001,-0.06478111929015214,-0.0646450463700169,-2.359357417121328,0.28578524424690455,0.27543303231816707
8.25,-0.07473009358642427,-0.07452113308808724,-2.3604103891755743,0.2861068943326174,0.27413423322512964
8.3,-0.0846716347726234,-0.08436757124107266,-2.3616167878279537,0.2863656122568842,0.2727604793433865
8.35,-0.09460475400253707,-0.09418044337964837,-2.3629778261081493,0.2865625774102796,0.2713112748027666
8.4,-0.10452846326765355,-0.10395584540887975,-2.3644948763552174,0.2866990259898857,0.26978615313998766
8.450000000000001,-0.11444177549543225,-0.11368988814148097,-2.366169472962463,0.2867762528422913,0.26818467574052146
8.5,-0.12434370464748516,-0.12337869884514681,-2.3680033154457942,0.2867956133538513,0.2665064302715354
8.55,-0.13423326581765563,-0.1330184227833377,-2.3699982718410526,0.286758525391354,0.26475102910492715
8.6,-0.14410947532998003,-0.14260522474890092,-2.3721563824361787,0.28666647129602046,0.2629181077299266
8.65,-0.15397135083653363,-0.15213529058992822,-2.374479863844363,0.2865209999334798,0.2610073231552643
8.700000000000001,-0.1638179114151379,-0.16160482872723023,-2.376971113424529,0.2863237288020023,0.2590183523015247
8.75,-0.1736481776669303,-0.17101007166283433,-2.379632714055609,0.28607634620082245,0.2569508903850036
8.8,-0.1834611718137825,-0.18034727747890192,-2.382467439271052,0.2857806134598263,0.2548046492952164
8.85,-0.19325591779555334,-0.18961273132646428,-2.3854782587598464,0.28543836723119426,0.25257935596915454
8.9,-0.2030314413671762,-0.19880274690339414,-2.388668344240016,0.2850515218427635,0.2502747507664912
8.950000000000001,-0.21278677019556236,-0.2079136679210166,-2.39204107571003,0.28462207171187337,0.2478905858512173
9.0,-0.22252093395631434,-0.216941869558779,-2.3956000480827995,0.28415209381725814,0.24542662358667364
9.05,-0.23223296443024266,-0.22588375990640422,-2.399349078205908,0.2836437502251228,0.24288263495265802
9.1,-0.24192189559966779,-0.23473578139294543,-2.4032922122703786,0.28309929066383327,0.24025839799527612
9.15,-0.2515867637445085,-0.24349441220218362,-2.4074337336085305,0.28252105513964604,0.23755369632249795
