time,x,y,theta,left_vel,right_vel
0.0,0.9998988386349617,0.0128784112220326,1.5850971056447607,0.2748134507401571,0.3534211118374024
0.05,0.9997147417419464,0.02575074109664318,1.5947777824162916,0.2549628553326752,0.3730198891318323
0.1,0.9993453556362485,0.04115077753476483,1.610283907590243,0.28116913573585495,0.4702682232230673
0.15,0.9986375761625903,0.059065563609029106,1.628464849299171,0.32642748079737605,0.5481462821257632
0.2,0.9975834502545743,0.07732434758459081,1.6472038258673736,0.33181568784725474,0.5603397923375312
0.25,0.9963627507414105,0.09326941944951,1.66380735590794,0.28880115499939957,0.49128322866484564
0.3,0.9949011732930308,0.10893810199401466,1.6804120281514596,0.28257402291146516,0.48507002588121584
0.35,0.9930980682992709,0.12532149764485667,1.6981372672108783,0.29392705529469,0.5100885072388193
0.4,0.9910413303775462,0.14138552795234904,1.7159383821050964,0.2864605439173744,0.5035473109200345
0.45,0.9889532136616987,0.1556710716642712,1.732203276955724,0.25295422835002446,0.45130660457719024
0.5,0.9865186619663722,0.1706231729837997,1.749743861829112,0.2625331598021872,0.47644273142886845
0.55,0.9838281209526498,0.18549770301558102,1.7677807714900815,0.2586995102804107,0.4786618232190637
0.6000000000000001,0.98094980649489,0.1999201049648524,1.7859134239653203,0.2481378214561479,0.46926772969076724
0.65,0.9778710617979034,0.21401060529367208,1.804335131858956,0.239451258360743,0.46410623267337375
0.7000000000000001,0.9746330556559966,0.22762257708226097,1.822894848302519,0.22809440539985643,0.45443241080916
0.75,0.97102439551737,0.24163252201593421,1.8428731031754737,0.23104084431038782,0.4746780988586162
0.8,0.967176253304226,0.2554253801667908,1.8635074766793107,0.22343934802087337,0.47507804928717823
0.8500000000000001,0.9631706083396601,0.26871693108529005,1.8844279848608416,0.21102181286940144,0.4661499614246552
0.9,0.958870288165322,0.2819757543599421,1.906443362330039,0.20572975272320213,0.4742099657621932
0.95,0.9544099158203564,0.2947618062237218,1.9289042716259897,0.1933289664268174,0.4672424944262167
1.0,0.9495516350265328,0.30774338330769707,1.9530926179763712,0.19058053959532145,0.48556037313656114
1.05,0.9446141358568138,0.320023343281829,1.9774346574256858,0.17438802674532033,0.4712421663711082
1.1,0.9393380151865207,0.33227514706353795,2.0033306842946557,0.16745277894524285,0.48325798466438996
1.15,0.9338371187345108,0.34418979200817623,2.0302576467020934,0.15588948378871387,0.4842670741233219
1.2000000000000002,0.9280777618904127,0.35583007592651705,2.058454960798364,0.14482522940065964,0.48869491350152355
1.25,0.922254889014304,0.3668086659183936,2.0870307347182524,0.12885990226831093,0.477344950071824
1.3,0.915976734176103,0.37787008052331394,2.11802440806816,0.12123097627437657,0.4992026024927604
1.35,0.9097362408784544,0.3881121876362404,2.1490062356982436,0.10361128753640367,0.4814384537569364
1.4,0.9031832622841166,0.39815332834975903,2.18183975813621,0.09224065604432778,0.492649466263429
1.4500000000000002,0.8964434896552724,0.40777507161351806,2.2159271880965368,0.07867288114210491,0.4943732465119424
1.5,0.8893892920996703,0.4171488025812044,2.2519704105168836,0.06635886054693245,0.5059103534779892
1.55,0.8822121724317206,0.4260028301057319,2.2890015095704594,0.05219039332015861,0.5037891622662066
1.6,0.8748498523586555,0.43442752616882196,2.3273779350038617,0.038884083789773184,0.5068892720019972
1.65,0.8672730097284511,0.4424541309012016,2.367259164603094,0.02603850291187794,0.5123949614391016
1.7000000000000002,0.8593583148528906,0.4501955884776558,2.4092806881762363,0.013801667705785446,0.5262592722562981
1.75,0.851111144657451,0.4576105345454556,2.453354777033494,0.0017534128060601511,0.5392423013092004
1.8,0.8427901279988824,0.4644535552355438,2.4980100153445237,-0.009522068415223552,0.5350540085485531
1.85,0.8342670495356671,0.4708469499023467,2.543868079556873,-0.019756498707872685,0.5394881868085808
1.9,0.8254496688440721,0.47684983652931456,2.591305727575402,-0.0290878371475319,0.549420065517454
1.95,0.816413969187867,0.4823932388438755,2.6397503662632946,-0.03684239292906723,0.5539458837525514
2.0,0.8072434695325041,0.48742506462054563,2.688582068455881,-0.04262564469359805,0.5528829186306261
2.0500000000000003,0.7978936572214579,0.49197630610312715,2.737857204773186,-0.046831521197282476,0.5540847753552126
2.1,0.7882770959842048,0.49608453356714727,2.787822564598019,-0.04960996138435458,0.5597236950160449
2.15,0.7785771511040476,0.4996667895632796,2.8372982736413137,-0.04947908564301883,0.5538832197630167
2.2,0.768521506027282,0.5028247431995032,2.887447785159609,-0.048719924841870405,0.5628594839178312
2.25,0.7583572637659151,0.5054650244149178,2.9367895140781313,-0.044728424660780024,0.5569999767846101
2.3000000000000003,0.7480401756310201,0.5076080430663765,2.9853425104101574,-0.03904737052682153,0.5530623408393534
2.35,0.7375131785582579,0.509266405697707,3.033175033619647,-0.031739263288376354,0.5515841904858879
2.4000000000000004,0.726822258402593,0.5104300527095873,3.079893125904249,-0.022572222786166822,0.5471606099528827
2.45,0.7159241249797608,0.5111033169458787,3.125525651545269,-0.011932228127205806,0.5445619870071859
2.5,0.7048284295027099,0.5112816068498183,3.1698904403546724,0.00014464872288600216,0.5411786585936619
2.5500000000000003,0.6935220578630099,0.5109615761284076,3.2129243361377786,0.013473806747917169,0.5382774138589668
2.6,0.6821024797714532,0.5101456140108943,3.2541837134610523,0.02765483127154344,0.5308179693602476
2.6500000000000004,0.6704511544050991,0.5088282074187845,3.294044027469085,0.042938766162527835,0.5290401565043941
2.7,0.6586971154862354,0.5070222755029028,3.3320371471641734,0.058382551995099854,0.5217132799839821
2.75,0.6466895444252465,0.5047074462154487,3.3686379446014363,0.07508447769197465,0.5214356659512795
2.8000000000000003,0.6345285863353236,0.5018979145069284,3.4035397141908916,0.09160581438342948,0.5172371508402014
2.85,0.6222450386072331,0.4986046035546836,3.4366883912400663,0.10805362100669383,0.5123057801429708
2.9000000000000004,0.6098417986966291,0.49483438079100706,3.4681261393990215,0.12449179363665556,0.50787896630684
2.95,0.5972807710661495,0.4905805105475,3.4980017219987425,0.14128987912964389,0.5056262522969738
3.0,0.584542280262226,0.48583785989808626,3.5264123210882095,0.15829425776077913,0.5047649783640333
3.0500000000000003,0.5716599808192219,0.48062037280736963,3.553340276993676,0.17479953976609017,0.5031892459303177
3.1,0.5586407423073652,0.47493473408643255,3.5788360789989966,0.19103986730747805,0.5019642820065128
3.1500000000000004,0.545468138792814,0.46877763056420635,3.602996318412505,0.20732887098945701,0.5019659370078516
3.2,0.5321469114263299,0.4621543401811503,3.625875531392436,0.22334457780783024,0.5023593702460144
3.25,0.518742354535209,0.45510264873024536,3.647431494137269,0.2379816194271966,0.5008592138763769
3.3000000000000003,0.5052234873953376,0.4476144365758738,3.667784206213092,0.25283042968871877,0.5010342354914372
3.35,0.4915686408725553,0.43968353108818836,3.687028901296331,0.2677994152142139,0.502490818668346
3.4000000000000004,0.47779626784461265,0.43132585695950354,3.7051993634582874,0.28212896317855046,0.5037199651536275
3.45,0.4639116319393617,0.42255097078515946,3.7223471964081045,0.2960506281267782,0.5051705421489375
3.5,0.44989915953381265,0.4133553220693219,3.738546017373402,0.3100157302589917,0.5075623273967667
3.5500000000000003,0.43579935432919154,0.40377205806057176,3.753802145497369,0.3227862532111097,0.5088365961863184
3.6,0.4215891877054543,0.39379349779954254,3.7681910827138068,0.3357691575162861,0.5112440016191817
3.65,0.40727145144455335,0.3834286347480593,3.781756074357808,0.34839960579553064,0.5138263331613999
3.7,0.3928618137237201,0.3726963673313931,3.7945262718141373,0.36035661807515773,0.5160907333962459
3.75,0.3783682097218531,0.36161102494558967,3.8065367353120707,0.3718118167370646,0.5182808837850342
3.8,0.3637801599584034,0.35017315384600123,3.8178349451257954,0.3832407711625804,0.5210238176714189
3.85,0.3491069527239672,0.33839841602605736,3.8284495636568185,0.3941423618719257,0.5235889293234265
3.9,0.33437027207255643,0.326313370265922,3.8383994249990914,0.40416624401797874,0.5255060164847196
3.95,0.31954688886861354,0.31390850592246045,3.847731832794976,0.41453605970608415,0.5283459108754085
4.0,0.30462900287091993,0.3011859706205477,3.856479507163223,0.42486248064809984,0.5315414363584311
4.05,0.2896538492576669,0.2881866120384845,3.864647325860967,0.4338606981527514,0.5334682432471859
4.1000000000000005,0.2746092031562971,0.2749099088154036,3.872267250276972,0.44293215224053256,0.5358580597527919
4.15,0.25950901244414326,0.2613781276607705,3.87935540979651,0.45132132396426833,0.5377622937147326
4.2,0.2443466821864957,0.24759563945582833,3.8859362479377646,0.4596368562305119,0.5398909799043483
4.25,0.2291316917718849,0.2335813203896136,3.8920251427516233,0.4674012051509893,0.5416560199541416
4.3,0.21386209620802205,0.21934387894053983,3.8976407317587674,0.47496316444570585,0.5434459572157552
4.3500000000000005,0.1985366092157688,0.20489259378361216,3.902799478867304,0.4823108004785068,0.5452223505826129
4.4,0.18317314921027675,0.19025504005596494,3.907510171566628,0.48884039040113825,0.5462878623441144
4.45,0.16777131529022385,0.17544188803273203,3.9117866308523035,0.49512588480136466,0.5472778273096038
4.5,0.15233249909391633,0.16046554521222595,3.9156406443822314,0.5011158019217992,0.5481159669209195
4.55,0.13686151694313933,0.14534183303550724,3.919081870251219,0.5067025105346187,0.5486686796686109
4.6000000000000005,0.12136178615678783,0.1300853565264467,3.9221192001686487,0.5119334259136901,0.5489740346628359
4.65,0.1058371061522749,0.11471120498020627,3.9247603517622203,0.5167986509536382,0.5490078167289015
4.7,0.09028989133413247,0.09923319097081945,3.927012201739841,0.5213473602047018,0.5488089452976328
4.75,0.07472173274522051,0.08366436652522852,3.9288806138420647,0.525611434850386,0.5483969482921405
4.800000000000001,0.059139389525677745,0.06802301679871638,3.9303698162084717,0.5294200938805038,0.5475810983488798
4.8500000000000005,0.04354947271803419,0.05232738574688401,3.9314833055978844,0.5327799265746712,0.5463590654699494
4.9,0.027952901714121663,0.036590046561301215,3.9322241105510547,0.5358888469545517,0.5449230537005325
4.95,0.01235302785703203,0.020826034784952357,3.9325940688537013,0.5386690326040028,0.5431807192216472
5.0,-0.0032459258485921707,0.005051284473939974,3.9325940688537013,0.5410952956987891,0.5410952956987891
5.050000000000001,-0.018840069404336614,-0.010718601477914504,3.9322241081123552,0.5431842997719549,0.5386725834140781
5.1000000000000005,-0.034425910426482,-0.026468432692563746,3.931483258831494,0.5449556603678217,0.535920913040246
5.15,-0.04999719942771873,-0.04218026022096923,3.930369851096776,0.5463189997242139,0.5327408566178969
5.2,-0.06555701863004973,-0.057845590670621186,3.928880573410483,0.5476087935411663,0.5294468705375954
5.25,-0.08109361739472429,-0.07344102145814381,3.927012455212656,0.5483106845208342,0.5255287552790406
5.300000000000001,-0.09660791643780761,-0.08895599191955522,3.924760317559288,0.5488790561066268,0.5214139627728709
5.3500000000000005,-0.11209495259740718,-0.10437409407151149,3.922118651656028,0.5491147246548547,0.5168992868102215
5.4,-0.12755012636043236,-0.11967939652286999,3.9190809591144866,0.5490395761835464,0.5119945451891376
5.45,-0.14297334749620905,-0.1348605364635523,3.9156387599967832,0.5488238543385127,0.506845816317741
5.5,-0.15835378043878817,-0.14989567526952424,3.9117848913066924,0.5480953678682703,0.5010969692086279
5.550000000000001,-0.17368956462251492,-0.16477202064546245,3.907509153334838,0.5471855175190583,0.4950423715208306
5.6000000000000005,-0.18898053283662025,-0.17947851444936191,3.9027995027744664,0.546167007960946,0.488732245029587
5.65,-0.20421951404914504,-0.19399747156261804,3.897644730691133,0.5448022345080076,0.4819391603210178
5.7,-0.21940496081406283,-0.20831681943757246,3.8920305833743023,0.5433064383208113,0.47484122713994975
5.75,-0.2345429506461853,-0.22243170505730855,3.8859381914500077,0.5419671159703671,0.467669653478971
5.800000000000001,-0.24961540644825483,-0.23631479159233354,3.8793568378403354,0.5399332688565569,0.45967285898250376
5.8500000000000005,-0.2646165576923196,-0.24995080794105,3.872269966162211,0.537664588160851,0.4512393237934768
5.9,-0.2795478131197286,-0.26333127370721315,3.8646560339838265,0.5354366659632611,0.44258383451954936
5.95,-0.29442714748851295,-0.2764623219711237,3.8564821891356638,0.5338618317922603,0.4341807970585685
6.0,-0.3092153172585568,-0.28929943657218954,3.8477450430686746,0.5309016973675634,0.4243511355750141
6.050000000000001,-0.3239312750161558,-0.3018500956623676,3.8384068281713466,0.528674674723776,0.414794005244164
6.1000000000000005,-0.3385615992176065,-0.3140935838351094,3.82844695536871,0.5260347758788598,0.4045729124320716
6.15,-0.3531021861740821,-0.3260177564582214,3.817837329714773,0.5233426449034714,0.393956966196924
6.2,-0.3675561225095581,-0.33761659367937574,3.806542191009777,0.5208821916243471,0.3831365976609819
6.25,-0.3819101850649826,-0.3488711317868292,3.794536158680269,0.5180896680265511,0.3716746396179111
6.300000000000001,-0.39617154930921206,-0.35977907053132874,3.7817748567513982,0.5157312323544511,0.36010559907554046
6.3500000000000005,-0.410347336028919,-0.37033758018063023,3.76820971103035,0.513832169423325,0.34840356306907366
6.4,-0.42439564585284567,-0.38050779950450375,3.753837776864811,0.5106398772387135,0.3353723874150672
6.45,-0.43836646300520227,-0.3903190287978389,3.7385606538135865,0.5095368385568775,0.32323045988340565
6.5,-0.45220757686495117,-0.3997267633265562,3.7223857077729177,0.5068142475002845,0.3095588079799335
6.550000000000001,-0.46594341739497064,-0.4087416299092514,3.7052328099130154,0.5053197530364479,0.2961380718181291
6.6000000000000005,-0.4795531942781451,-0.4173434462355521,3.6870732627574214,0.5034173803005192,0.28195948815913097
6.65,-0.4930716682750651,-0.4255478639705877,3.6678012846861896,0.5032031942561674,0.2681790714362682
6.7,-0.5064404510027039,-0.4333129253745514,3.647440587601981,0.501230806963411,0.2529296230096487
6.75,-0.5197015731000977,-0.4406585280102504,3.6258655240372426,0.5013030271152242,0.2381924958379273
6.800000000000001,-0.5328371689163957,-0.447568560156531,3.603039644924139,0.5011883173878691,0.2228239379597733
6.8500000000000005,-0.5458498381667802,-0.45403913917891053,3.578892519112928,0.5016934818573859,0.2072163378182281
6.9,-0.5587270875252227,-0.4600590746479247,3.553381807854098,0.5022578171042437,0.1911515822404642
6.95,-0.5714508621152765,-0.4656163103798069,3.52648164107912,0.5026699643456148,0.17461915001661255
7.0,-0.5840374578507744,-0.4707150495443574,3.498097375545011,0.504297115773076,0.1581475360888192
7.050000000000001,-0.5964635037185385,-0.4753427276323848,3.468226278385373,0.5055503389235182,0.14126866624500736
7.1000000000000005,-0.6087541785689384,-0.4795064132005334,3.436756555396358,0.5083955218679025,0.12461841224576779
7.15,-0.6209433049861056,-0.48321245936469914,3.4035486831403303,0.5132206295224001,0.10824657761962428
7.2,-0.632931156057756,-0.486426607080643,3.368842721021421,0.5143353238162389,0.09109188334173648
7.25,-0.6447834187610478,-0.48916737798829685,3.3324323789381287,0.518722331234957,0.07469376924358667
7.300000000000001,-0.6565055616074305,-0.49143198770425345,3.2942893397668813,0.5237719417171709,0.058612927433665245
7.35,-0.6680392629551574,-0.49320696243885714,3.2546196873928337,0.526509628002722,0.042733379538724345
7.4,-0.6794752764935336,-0.4945050736794064,3.2131413395423922,0.5336351105320662,0.02780160016082842
7.45,-0.690746502868578,-0.49531289405487244,3.170148389552672,0.5377652548881963,0.013460986720875569
7.5,-0.7018336411325381,-0.4956295815312307,3.1258054594822147,0.5409120173374108,0.00014457745378369485
7.550000000000001,-0.7127565500641955,-0.49545712512004936,3.0801505323689424,0.5448293180407091,-0.011938085779683506
7.6,-0.7235108295602667,-0.4947955266249548,3.0333431707121306,0.548206129616892,-0.022615354002766742
7.65,-0.7341654945045266,-0.4936376384252244,2.985238757410342,0.5547195106906186,-0.031919675916563146
7.7,-0.7445786109733366,-0.49199610866758253,2.9366654804612624,0.5532933553263732,-0.03906368063801224
7.75,-0.7548503598371584,-0.48986117863755835,2.8873721301978126,0.5564538485815124,-0.044684569265434966
7.800000000000001,-0.7649797698172627,-0.48722912745010305,2.837575081659262,0.5589035703929868,-0.04837750934543221
7.85,-0.7748526084027422,-0.4841315859511857,2.788065554871359,0.5542618112300293,-0.04951290569561601
7.9,-0.7845740396441424,-0.4805440790437452,2.7385544492077267,0.5546350332216587,-0.04915893828605159
7.95,-0.7940991268334601,-0.4764827806368613,2.6894874012060797,0.5517448819271639,-0.046633752239261014
8.0,-0.803474064918158,-0.47192980249445826,2.6408341523480616,0.5508624320199704,-0.042469871126592125
8.05,-0.8126568595023027,-0.4669041713101792,2.5929952290671485,0.5470197601295931,-0.03638174329617625
8.1,-0.8216706498743634,-0.4613951493274081,2.5460148776300886,0.5441236832504976,-0.02880743183559985
8.15,-0.8305037203322004,-0.45540929253423834,2.5000891471052538,0.5402842338476026,-0.01978565060160284
8.200000000000001,-0.8391163447890858,-0.4489766661976932,2.455532177123615,0.5338765685539888,-0.009501114148922962
8.25,-0.8475427692406361,-0.44207766188129227,2.41225293664523,0.5295174067026756,0.0017217911126086848
8.3,-0.8557517148359195,-0.43474108797385436,2.3704652661734227,0.5233305977947684,0.013724860333704895
8.35,-0.863743683974706,-0.42697402768190096,2.3301990029602897,0.5173418822269013,0.026289891822839775
8.4,-0.8715339315897477,-0.4187678515431591,2.2913881677771055,0.5126271081691441,0.039324240081531986
8.450000000000001,-0.8791101212056083,-0.41014006952470855,2.2540826542992005,0.5075224301540089,0.05257714383809268
8.5,-0.8864620430743361,-0.40110945863282504,2.2183056875509455,0.502173132104925,0.06586865956522826
8.55,-0.8936076788403837,-0.39166108151200746,2.1839317660324524,0.4985282608932998,0.07933409603362969
8.6,-0.9005263367602921,-0.3818278021126982,2.151007567022115,0.49401001979729126,0.09249539772000241
8.65,-0.9072288190967467,-0.3716023483195621,2.119424337449687,0.49078386825817105,0.1056225320090498
8.700000000000001,-0.9137083923036069,-0.36100128332434406,2.08914811006287,0.4876469895816909,0.11842470437661032
8.75,-0.9199525927314789,-0.3500537546774884,2.060167834251903,0.48410196514139486,0.1306839674466715
8.8,-0.9259767346612872,-0.3387425351422883,2.0323434890282726,0.48223089390264484,0.14290961068764196
8.85,-0.9317775198490076,-0.32707978647088864,2.005616605694674,0.4806687585682258,0.15473115693897435
8.9,-0.9373416912741427,-0.3151001242253201,1.9799744494357812,0.47852038534030716,0.1658111626708845
8.950000000000001,-0.942676888194802,-0.30279724737865216,1.955311533087629,0.477454083218184,0.17668681067974254
9.0,-0.9477763424010542,-0.29019535259872853,1.9315879434519048,0.4762307794339273,0.1869187107055828
9.05,-0.9526409577664761,-0.27730235898934724,1.9087314806503288,0.4754709861676358,0.19673363492890522
9.1,-0.9572703887081767,-0.26412868591338734,1.8866771499520163,0.4750490160792531,0.2060937636608079
9.15,-0.9616664631944801,-0.250677796341966,1.865351226547937,0.47518340787408786,0.2151111712389758
9.2,-0.9658202449684063,-0.23698612061827662,1.8447337279765625,0.47468952719343305,0.2232566177864279
9.25,-0.9697302454184623,-0.22307161585687316,1.8247745458769526,0.4742249347635051,0.2308202750121656
9.3,-0.9733987960956151,-0.20893918549320714,1.8054069859230268,0.47421236138586487,0.238022605850184
9.35,-0.9768266339039763,-0.19459749293399956,1.786573080555978,0.47449090588648246,0.2448091331175959
9.4,-0.9800119612465357,-0.18006517055405635,1.7682302015534748,0.4747083305793842,0.25101468420739137
9.45,-0.9829566803925376,-0.1653445077549488,1.750316915063188,0.47538112306681335,0.2569264097706335
