time,x,y,theta,right_vel,left_vel
0.0,0.9998976049597783,0.01303546501742324,1.585175713305858,0.3534211118374024,0.2748134507401571
0.05,0.9997082682009331,0.02620179231554734,1.5960499290335266,0.38280102474012856,0.2517863774188196
0.1,0.9993695516534876,0.03961154417274952,1.6082539764165247,0.39674797196974426,0.24971125651193574
0.15,0.9988780672166078,0.052726476825451035,1.6217590903000472,0.3976004126726728,0.23488819720854578
0.2,0.9981866667720065,0.06628150650317942,1.6361078651853447,0.41349024221225256,0.24061343636529467
0.25,0.9972254070819981,0.08097864184350465,1.6513331253719186,0.44662294517192164,0.26318607545416456
0.3,0.9960057781406282,0.09608963349756677,1.6666985685542042,0.4578672654960731,0.2727414440227524
0.35,0.9945035854479748,0.11170537403412725,1.68191653487069,0.4696944384994125,0.2863454467345233
0.4,0.9928034049319252,0.12694271929120743,1.6980730200603347,0.4667717127775667,0.27211526470955705
0.45,0.9909052536534615,0.14177568308009264,1.7149195414560583,0.46182054646949944,0.2588504091716244
0.5,0.988733550259431,0.1567395875606051,1.7324139716250062,0.46974168464230615,0.2589654175465491
0.55,0.9865246963240034,0.17028754153535644,1.750366238073863,0.4389133739202312,0.2226210070665352
0.6000000000000001,0.9841797953280594,0.18320531032025594,1.7688664851335756,0.4278056614010047,0.20491111851289934
0.65,0.9813520994445262,0.19729435991323407,1.788037311740474,0.461752204319254,0.23077838977830833
0.7000000000000001,0.9783645007602664,0.21082979656470058,1.807750459794285,0.45275952792616275,0.2152517200489217
0.75,0.9750848593233234,0.2244106083491278,1.828197638427297,0.45983125456853213,0.21347970477320616
0.8,0.9715187200260861,0.2379576663735196,1.848675638909606,0.4609174358651902,0.21419453848797387
0.8500000000000001,0.9674242368799999,0.25231119560424903,1.8696719334619367,0.4861488692361245,0.23318146499117443
0.9,0.9630440310166565,0.26652781084955063,1.891165067100242,0.48793695062307535,0.2289835332940971
0.95,0.9585596275684286,0.28004324529903085,1.914043879251891,0.4809560589242167,0.20530771974772175
1.0,0.9539520605232359,0.29293533080659084,1.9374809628350822,0.47108387921259776,0.18870937821029307
1.05,0.9491297404127883,0.30549169277887994,1.9619359570417678,0.4714286137647703,0.17679012934687063
1.1,0.9443649282390891,0.3170458973189495,1.9869109722379754,0.4516114882481219,0.15070769070345164
1.15,0.9395454217644951,0.3279517222682725,2.013046448024129,0.4447506321217781,0.12986538168619083
1.2000000000000002,0.9345766294276991,0.3384447607133095,2.0399503592978654,0.441831468549624,0.1176879592274978
1.25,0.9296204979788839,0.3482220558328739,2.06885754948219,0.4382769085095013,0.0899975086983651
1.3,0.9241584086801092,0.35826658015531043,2.0990701953476365,0.4575119866695966,0.09350420515819079
1.35,0.9178335187310201,0.36910428231886994,2.1301597325756823,0.4896552242072987,0.11508248652000168
1.4,0.9115128458195431,0.3792001867137577,2.162841507056761,0.483896550477659,0.09014023142852105
1.4500000000000002,0.9049076750991627,0.3890216841796551,2.196310207176481,0.4868226770129,0.08358532617290093
1.5,0.8977734060435213,0.3988993026806981,2.23098838099565,0.502510138442787,0.08470081532026844
1.55,0.8905851587087861,0.40815758424212834,2.267377986133301,0.5016531948964936,0.06322421733443218
1.6,0.883080585647241,0.41712939189958254,2.3052813398092713,0.510180781952596,0.053513870193915555
1.65,0.8752656313831398,0.4257835666598783,2.3445348206447667,0.5174436792539483,0.04451017521183541
1.7000000000000002,0.8668985569545236,0.4343480665971293,2.384869950595016,0.5314946360801411,0.045529214992797946
1.75,0.8582453876024976,0.44251867412680457,2.4263671631147217,0.5367566877820874,0.03679027188201902
1.8,0.8497149055414323,0.449928726593585,2.4694856043937548,0.5320260099149905,0.012526717396518611
1.85,0.8408375289763412,0.45699236180929664,2.514103363361779,0.542148518065785,0.004585157005253592
1.9,0.8317916585861979,0.46355311743185307,2.5591533923054515,0.5406527554538382,-0.0021186776024555674
1.95,0.8227027451897493,0.4695396242185645,2.6052342831380972,0.5398443539113333,-0.01534710190367586
2.0,0.8141582924680373,0.4746192181268698,2.652147649216248,0.5221364038367088,-0.0430848742133043
2.0500000000000003,0.8047362259622666,0.47963812177502924,2.6993211158377646,0.5414167026654007,-0.0269383168709399
2.1,0.795884527743621,0.48382991862837277,2.7467668363775353,0.5218191758571409,-0.04981601136901386
2.15,0.7871095551169204,0.4874865145570468,2.7946039537716136,0.517244268339062,-0.059106543637787425
2.2,0.7780122829290681,0.49077626728938556,2.8424684851545527,0.5214446978330107,-0.055236403166254125
2.25,0.7691034779084054,0.4935235367002011,2.890817906258992,0.5159069635315049,-0.06661618230511131
2.3000000000000003,0.7587690111572907,0.496170889611302,2.938933026250485,0.5469142650175379,-0.03278597584382356
2.35,0.7476444524826631,0.49845676894164104,2.9863976940314636,0.5595939609582983,-0.012269506282410417
2.4000000000000004,0.7356039765624655,0.50034053828203,3.0329923215878734,0.57435187141413,0.012970816517626493
2.45,0.7233995998269258,0.501671172947786,3.0794287215569356,0.5755614821305476,0.016086783708111667
2.5,0.7119684899602011,0.5023826924419792,3.1250428474756013,0.5507653950771766,0.00119761292457853
2.5500000000000003,0.7002471539509222,0.5025766959929263,3.169713414206102,0.5515803154005738,0.013380716237914033
2.6,0.6882841575297859,0.5022401987315191,3.2132213491364654,0.550474981807279,0.02628299469446982
2.6500000000000004,0.6751663149477668,0.501298974524514,3.2554238031962903,0.5711368638090941,0.06267356188349348
2.7,0.661997161507951,0.4997934062089618,3.295521846404699,0.5609505343597441,0.07784158004156626
2.75,0.6485176324889858,0.49770196872582667,3.3335660306666264,0.5578761521060798,0.09951248629972595
2.8000000000000003,0.6349493874941001,0.49506474987666244,3.3699262793901315,0.5521018163824186,0.11402653055705664
2.85,0.6219475951296882,0.49204331124444906,3.4048574434255117,0.5320732033377732,0.11121580532114451
2.9000000000000004,0.6095658819177725,0.48870618665376264,3.4382874733343374,0.5103867279735992,0.10761528328895244
2.95,0.5969002441172933,0.48483406704228943,3.4703537638618585,0.5123103737422711,0.1259695240131006
3.0,0.5836303344710794,0.4803071539607399,3.500047664426976,0.5167300468802705,0.1589722087463262
3.0500000000000003,0.570420402989449,0.4753581853155125,3.5283371171719313,0.5103351101685976,0.16949833010889362
3.1,0.5571724543912523,0.46996290027888404,3.555056199351047,0.5056438288649078,0.18372717610447764
3.1500000000000004,0.5438474614649591,0.4641164896271754,3.580626310275517,0.5046669230722206,0.19659329747619902
3.2,0.5314505215894446,0.4582948798980738,3.6048919681556577,0.47619822095875286,0.1838408971016329
3.25,0.5191760677707156,0.4521629959634074,3.627530751149581,0.46700153475826234,0.19424511314473156
3.3000000000000003,0.5067864262856501,0.44561901192743525,3.648748361694957,0.4654475738219427,0.20981371182945763
3.35,0.4944715807643396,0.4387765091737292,3.668598721307871,0.45905336956512144,0.219892410373384
3.4000000000000004,0.4813470712811739,0.4311393269490228,3.687550938973659,0.48006969394201915,0.2517297220650515
3.45,0.46889280116998266,0.423572636229505,3.705536280080533,0.4594948814683381,0.2428040247590138
3.5,0.45574959471076404,0.4152601244688243,3.7219358969205385,0.47352206031169014,0.2759363152513824
3.5500000000000003,0.4418157002735112,0.4061242392505855,3.737697409362919,0.49643964193043705,0.3065419016607932
3.6,0.4276117598093181,0.39648780891236735,3.7524112183187417,0.5022346567000258,0.3249598500033685
3.65,0.4136894932843589,0.38674030130251885,3.766740994361656,0.495851513071282,0.323203608939783
3.7,0.39891401447061636,0.3760766901453129,3.7813633121651544,0.5271613939786111,0.35098889032200553
3.75,0.38437407850999655,0.36525625290102126,3.7944631536302467,0.51564572512486,0.35781630988278235
3.8,0.3693789078301364,0.35378879044405626,3.8067357028396382,0.5288091541481875,0.38094711548081833
3.85,0.35447030749790986,0.342094798625417,3.8187430989672806,0.5289050968605822,0.3842376736359752
3.9,0.3394888022230604,0.33005027926062047,3.8299352297657876,0.5306224165192297,0.3957774671396281
3.95,0.3236198536651254,0.31699722037028316,3.8402970092725126,0.5575444280085946,0.43270371106010186
4.0,0.3080882959752505,0.30394953221367327,3.849436049640082,0.5438438352133156,0.4337349151221191
4.05,0.2929856139342897,0.2910248726313358,3.8580167460128965,0.5306806794904206,0.42729879548060923
4.1000000000000005,0.2779964897000891,0.2779729280374229,3.865477722532951,0.5238682622265886,0.43397697885243647
4.15,0.26335138036496186,0.26502716268429777,3.872107785981641,0.5109440896663553,0.43106380715202164
4.2,0.24885483745876735,0.25204049781848414,3.877799327304075,0.5032711582680959,0.4346983712508158
4.25,0.2332387175495698,0.23788983263870517,3.883404192679739,0.541566361374277,0.47403786287230076
4.3,0.2174657655370565,0.22343523255453737,3.8894757845409402,0.5521042003330326,0.47895249116193467
4.3500000000000005,0.2014377399563914,0.2085668314831243,3.895404276308726,0.5625199591198932,0.49109234745982183
4.4,0.1865431639475651,0.1945846750225242,3.900098548019155,0.5205467853944249,0.4639892949073344
4.45,0.17200993091831607,0.18081281375108793,3.9038995168558746,0.5053543561029944,0.4595595508413107
4.5,0.15784981222582128,0.16729199746717272,3.9078383287871366,0.49550118833189893,0.4480456228950061
4.55,0.14339399656503418,0.1533795706783552,3.910466845998079,0.4992815792730443,0.4676126972134955
4.6000000000000005,0.12894967343646913,0.13940488516839034,3.912765471885,0.4981367211999659,0.47044243340573927
4.65,0.11431553265542828,0.12518128342627394,3.914896465187323,0.5045859894241032,0.47891137132382217
4.7,0.09946587200316624,0.11068654160609571,3.9170917827266685,0.5132523617847479,0.48680275287697383
4.75,0.08424130810928085,0.09576044983486366,3.9179937415746906,0.5191871663223369,0.50832019224978
4.800000000000001,0.06940401898904286,0.08118777154914626,3.919551362753711,0.5105116723029386,0.49174515207377834
4.8500000000000005,0.054355499602989535,0.06636150834124405,3.9208647105116246,0.5169538045511592,0.5011303375883451
4.9,0.039336540304055125,0.051525446369447274,3.921923849190806,0.5150811759615226,0.5023204689834293
4.95,0.02410920340467671,0.036451645672438505,3.922408889356352,0.519221083506046,0.5133772260898299
5.0,0.00827695534007522,0.020763821309302714,3.922883455771913,0.5399260848552435,0.5342084171978809
5.050000000000001,-0.007308865428572318,0.0053055107188139765,3.9231404928480833,0.5305050659286441,0.5274082336856298
5.1000000000000005,-0.02326852253115859,-0.010531717463805278,3.9229888080139066,0.5408684014298021,0.5426959295524134
5.15,-0.03955315617706717,-0.026686527472030878,3.921984451966975,0.5466806087910753,0.5587812840553124
5.2,-0.05576785889112815,-0.04273968415388442,3.9206761567233763,0.5419285378843114,0.5576911311806824
5.25,-0.07250795396146678,-0.05926968706604034,3.91901061960509,0.5568577508796173,0.5769244631481293
5.300000000000001,-0.08937136388724916,-0.07586607552800582,3.917479779207845,0.5609082800736535,0.579352140281422
5.3500000000000005,-0.10615051800497169,-0.09232905294303062,3.915515905795637,0.5545983488555535,0.5782594743038472
5.4,-0.1227130008580603,-0.10851572564957099,3.9124425109227445,0.5395259260788603,0.5765547799691262
5.45,-0.13848887240056187,-0.12383912357847239,3.908958237620027,0.5089581540519276,0.5509373504702145
5.5,-0.15468067662224746,-0.1394572505090109,3.9052187845164834,0.519561742599875,0.564615394449796
5.550000000000001,-0.17050887917048346,-0.15461081051520803,3.901063846686935,0.5029848977176801,0.5530443896399508
5.6000000000000005,-0.1863538222187901,-0.16965471971359566,3.897220650864569,0.50333159214277,0.5496351562676611
5.65,-0.20176666094704887,-0.18417614701231652,3.893000817176561,0.4848469199932927,0.535688289728326
5.7,-0.21675312483518347,-0.19817695395797102,3.888165854915049,0.46506509072172875,0.5233176480893439
5.75,-0.2317343072789742,-0.21203778339607837,3.8827514895002486,0.45918485564728784,0.5244181738978946
5.800000000000001,-0.24643935966197392,-0.22549609409038585,3.87667912518832,0.4437570447743895,0.5169180605807585
5.8500000000000005,-0.26096007096685825,-0.238624553901525,3.8701851508421634,0.432582969073404,0.5108236238463741
5.9,-0.27634772477041036,-0.25235628036626434,3.8631026009780474,0.45429253263956976,0.5396244587132594
5.95,-0.29141297433048824,-0.2656098269452918,3.855211247976881,0.43596412089845815,0.5310406630811855
6.0,-0.3064786989078762,-0.27865433839943443,3.8471312694728983,0.43152433957452024,0.5288734781767204
6.050000000000001,-0.32213017268499716,-0.29198627690636153,3.8387284530468753,0.4447997415015144,0.5460384936222751
6.1000000000000005,-0.3379508266210231,-0.3052345549078053,3.8297251200168256,0.44299590262354344,0.5514697945518515
6.15,-0.3536223716181212,-0.3181197191694582,3.8198123307602816,0.4291648396451624,0.548596035507141
6.2,-0.3687789091430581,-0.3303316608024564,3.809119289195376,0.404599138642967,0.5334309647261681
6.25,-0.384545695748728,-0.34275961318891773,3.7971470552453543,0.4116370154848534,0.5558807980152348
6.300000000000001,-0.3999223350998093,-0.35458434117457427,3.7847699318169283,0.39285003505498317,0.5419720040721625
6.3500000000000005,-0.41562026462451424,-0.3663498473255316,3.7711315348008934,0.3905553996372069,0.5548734359749763
6.4,-0.43012764169938383,-0.3769171471925519,3.756390999202353,0.343684267005432,0.521281081445676
6.45,-0.44414893818167167,-0.3868173775248265,3.741039675587957,0.32111841845878103,0.5060741246563241
6.5,-0.45901533257776594,-0.3969759612279554,3.7249869818504373,0.33717016644034814,0.5305761150851614
6.550000000000001,-0.47327346101189843,-0.4063867624249772,3.7085406661835245,0.3125844749825582,0.5107328565116257
6.6000000000000005,-0.4883112888245691,-0.41596091245732464,3.691139882432939,0.3247413779445314,0.5343893749395392
6.65,-0.5024390470014242,-0.42461391596336606,3.673088221350053,0.290461714202741,0.5079516067676325
6.7,-0.5164116175934758,-0.43282877823800064,3.6532426207328377,0.27101536014503713,0.510118982039196
6.75,-0.5300414306147162,-0.44048228531606604,3.6322274981150238,0.25006874920844874,0.5032629976158476
6.800000000000001,-0.5434164776022242,-0.44762728734692864,3.6096096048563715,0.22914207494837913,0.5016468130044279
6.8500000000000005,-0.5566422200980295,-0.4543125519558126,3.5857031879590275,0.21307812449768593,0.5011072437427926
6.9,-0.5687264086286488,-0.46006235219947444,3.559983020197555,0.1675259669588252,0.4774075062536732
6.95,-0.5807375667655829,-0.46540303311326864,3.5325994402952423,0.15178545005923183,0.48170809948468674
7.0,-0.5928888624124067,-0.4704121896946292,3.504366456767495,0.14662716900541592,0.4867835970505664
7.050000000000001,-0.6062152754735125,-0.47547053578261234,3.475203946870926,0.1677951808682123,0.519150721790731
7.1000000000000005,-0.6197281969927622,-0.4801536395975191,3.4444177089952546,0.15915317761354927,0.5300717062361009
7.15,-0.6322935333989419,-0.4840794822742696,3.4121373050229566,0.12275281313030348,0.5116733429170245
7.2,-0.6434151689017938,-0.4871640077505199,3.3785378720978896,0.0757010122894663,0.4805134571697929
7.25,-0.6543200773820381,-0.489797340211245,3.343227747194882,0.05761018984641073,0.48303338144891084
7.300000000000001,-0.665258304167068,-0.4920332546860972,3.3069904034143516,0.05072474950255991,0.48731925288244776
7.35,-0.6751225351070035,-0.4936798184361779,3.268937257717711,0.01174517497647301,0.47021680987575826
7.4,-0.685076171221953,-0.4949542567856551,3.2288755914282814,0.00046929649437623885,0.48313997468027653
7.45,-0.6943527663445818,-0.49576600769917967,3.1874235055109965,-0.025324767391723582,0.4740979545032744
7.5,-0.7033485631098866,-0.4961785816350794,3.144694855708839,-0.04040746319358343,0.47439554647096116
7.550000000000001,-0.7125315862411914,-0.49620706932028186,3.101058345756954,-0.041591811309697545,0.4841492724479593
7.6,-0.7223308169116243,-0.4958096466047536,3.0562277735686885,-0.033743533645152146,0.5063838421170792
7.65,-0.7323536111322906,-0.4949519676170261,3.01016155637488,-0.03511156624167855,0.519903098743965
7.7,-0.7414766911264243,-0.4937459589416307,2.9634090325914895,-0.05989597942748471,0.5033874396495098
7.75,-0.7504267375717406,-0.49213411265649143,2.915825891544636,-0.0675121773931459,0.5057786785930407
7.800000000000001,-0.7593983659777059,-0.49007348715290355,2.8675612732078903,-0.06893789680552548,0.5125635289383965
7.85,-0.7684833506627381,-0.4875196691451621,2.818822180224659,-0.06620889590993594,0.5210090918398359
7.9,-0.7770355769820018,-0.48465923198616107,2.7691925978176872,-0.0816743852654625,0.5162723907221497
7.95,-0.78670135318245,-0.48088352023147096,2.7199255919120713,-0.046739722500803264,0.5468386619042075
8.0,-0.7956217998136264,-0.4768820437590347,2.6714259010900396,-0.05658082166934601,0.5277528026924806
8.05,-0.8048931862926912,-0.47217055049645723,2.623610742738562,-0.03744444791961216,0.5386417972789141
8.1,-0.8144690601832414,-0.4667134012486776,2.5766398806831496,-0.017373903013244294,0.5485400976543735
8.15,-0.824008983792158,-0.4606663239489996,2.529837917892935,-0.009770581423300725,0.5541084883383196
8.200000000000001,-0.8336431999818996,-0.4539075939745473,2.4839753807783076,0.007298952216047584,0.559859640344091
8.25,-0.8432701372027845,-0.4464727679605949,2.4389568372461947,0.021904129737786385,0.5642962204861339
8.3,-0.8529956190723096,-0.43823718894880404,2.3953830947576784,0.04459212378422028,0.569576973043453
8.35,-0.8624199583082055,-0.42952399828523885,2.3527867250610264,0.05267306925623006,0.5658823427098679
8.4,-0.8722316176365227,-0.41964523837306944,2.3119384673563657,0.08942759970739,0.581575282896075
8.450000000000001,-0.8813241839872411,-0.40971002810088364,2.2726508617306385,0.08785434612575801,0.5611989922188574
8.5,-0.8895706515279226,-0.39995624597022567,2.234981842785065,0.08085280805127311,0.5346964098051663
8.55,-0.8973517991743487,-0.39001652264032166,2.1989950869706325,0.08738502601357791,0.5209603972718051
8.6,-0.9046577754753791,-0.3799581757888692,2.164113657462744,0.08943039454653111,0.5096885813885615
8.65,-0.9118755965169432,-0.36925513177775027,2.130807887677438,0.1104322299360999,0.5117065646988249
8.700000000000001,-0.9191714739274843,-0.35761832595891024,2.0989104808641628,0.1388062864020258,0.5231123925860683
8.75,-0.9256656288895749,-0.3464865044432906,2.068521854178459,0.12748174489526276,0.49360977725313837
8.8,-0.9319328620740617,-0.3349521341620252,2.038910232547315,0.13793162441198495,0.4946981500884161
8.85,-0.9380002399771403,-0.3229516731986877,2.0106173797309266,0.15358731067606482,0.4944650554518296
8.9,-0.9434837953193961,-0.3112984668903309,1.9835311617159275,0.147165448697021,0.47350542478134794
8.950000000000001,-0.9485427464937035,-0.2997453573002424,1.9577760990763824,0.1487572049794588,0.45905916449205025
9.0,-0.953061785964782,-0.2886564719090078,1.9333062591123893,0.14112991901432081,0.43594726797809297
9.05,-0.9576400526631879,-0.2765852472852033,1.9099308876070644,0.17027527623305136,0.4519062582249161
9.1,-0.9624811520781089,-0.26286188821331585,1.8878757833132045,0.21779359842451929,0.4835177465433125
9.15,-0.9669997969623993,-0.24909188182812408,1.8666175309664692,0.2211540016493065,0.47727752389912964
9.2,-0.9711194933560083,-0.23557419762830628,1.845874664967604,0.21556138262409205,0.4654754308031886
9.25,-0.9749220610062451,-0.22210105640756048,1.8260314977442795,0.21779938402807122,0.45687368792354777
9.3,-0.9784948736935517,-0.20840823340862025,1.8066313214392287,0.22412588293437222,0.45786294685064743
9.35,-0.9818493959935901,-0.1944488983568314,1.787743861902816,0.23216555762435756,0.4597253110751124
9.4,-0.9848563484754813,-0.18080675911431393,1.7699628543335446,0.22950236592119816,0.44373137277988994
9.45,-0.9876915181316503,-0.16676031099144012,1.7530849989613488,0.2436206442192958,0.4469682993059914
