time,x,y,theta,left_vel,right_vel
0.0,0.9998988386349617,0.0128784112220326,1.5850971056447607,0.2748134507401571,0.3534211118374024
0.05,0.9997127500500249,0.025890003172181417,1.5958389927069478,0.25188904422266883,0.3828876669322683
0.1,0.9993806876744608,0.03914709640001978,1.6078924740705394,0.2499483162881925,0.3969419914539436
0.15,0.9988990829694809,0.05212374772661699,1.6212381615081606,0.23534544710381794,0.3980977329284662
0.2,0.9982215920156342,0.06554348676577756,1.6354367719529033,0.24115065842012287,0.41430444433161784
0.25,0.9972795718215451,0.08009641542323782,1.6505252270730006,0.26368955574595593,0.447695105991046
0.3,0.9960829690061038,0.09507299550167202,1.665779255521591,0.2734341503541046,0.45945888753203373
0.35,0.994607154766974,0.11056392046622252,1.6809126100808034,0.2872616498825279,0.4718147542631681
0.4,0.9929336674729131,0.12569989999592374,1.6969923713764743,0.2733724761645754,0.4694671261117812
0.45,0.9910618301223647,0.14045385031864263,1.7137732314977994,0.26041467127872997,0.4650593069046457
0.5,0.9889172546033875,0.1553509565949441,1.731207827118366,0.26078125521137063,0.47339827497437703
0.55,0.9867303053470264,0.16886718773331416,1.749108770009421,0.22479947361409233,0.4431036552123232
0.6000000000000001,0.9844044135484729,0.18177256054881777,1.767567182421031,0.20728508862354747,0.43238767900903474
0.65,0.9816005051258238,0.1958377873142826,1.786699919631903,0.2331414571794368,0.4664675207266566
0.7000000000000001,0.9786334664221765,0.20936601328368593,1.806374479174684,0.21783251885441945,0.45776617181516244
0.75,0.975374016624429,0.22294506915373533,1.8267839062741207,0.2161563940607178,0.4650518464928727
0.8,0.9718274673930637,0.23649549472421855,1.847233013518467,0.21694098158716085,0.46632033822553076
0.8500000000000001,0.9677567451920478,0.25084416530188264,1.8681995758146004,0.2359338799995111,0.49162366409870073
0.9,0.9633988821103854,0.2650626266648352,1.889662639299781,0.231842337216492,0.49358701386503656
0.95,0.9589314963449274,0.2785947591731919,1.9124933279176617,0.20836113750064164,0.4867841694260138
1.0,0.9543367505613969,0.29151414542327003,1.9358817555486185,0.19182958316890206,0.4770543103756921
1.05,0.9495251833356587,0.30410262240716107,1.9602844839963238,0.17990241295934786,0.4774966623216066
1.1,0.9447642310058373,0.3157017805321883,1.9852086204365136,0.15383397291856019,0.45778685633550803
1.15,0.9399445609957364,0.32665838705449496,2.0112829468038336,0.13295688626840163,0.4509364761137676
1.2000000000000002,0.9349742943208104,0.337202572149009,2.0381241789628,0.12064866026205254,0.4479807597616448
1.25,0.9300120901142989,0.3470363367447539,2.0669506193407754,0.09288332019502037,0.44442527602398874
1.3,0.9245503140587671,0.35712608257005585,2.0970754929861637,0.09614552065939617,0.46352202852998714
1.35,0.9182388015140968,0.3679905862418235,2.1280832192963723,0.11738551243061783,0.49552851621364924
1.4,0.9119264414188633,0.37811991724134875,2.160671259189345,0.0923951213018154,0.48981024194782297
1.4500000000000002,0.9053311839016305,0.38797278327159135,2.194052918387492,0.08563601712453343,0.49272942197998576
1.5,0.8982128121439344,0.39787540831150403,2.2286419340661534,0.08654556612984488,0.5083628305037677
1.55,0.8910367840192708,0.40716285829180754,2.264932409898513,0.0649796436055832,0.5075464220489887
1.6,0.8835464405924378,0.4161622843090422,2.302735674607322,0.05507164698532122,0.5160870702634865
1.65,0.8757474075280407,0.4248431536473907,2.341886688891701,0.04590166654371926,0.5233530602556595
1.7000000000000002,0.867402799827028,0.4334300301928274,2.3821265181757627,0.04667403805903541,0.5374036634744223
1.75,0.8587730344839306,0.4416234387040747,2.423531739156975,0.037767706520828,0.5427094258039026
1.8,0.8502586972480494,0.44906192980336707,2.466547300247184,0.013465500249196042,0.5380455135444272
1.85,0.8414001999613531,0.45615315117523964,2.5110627721324734,0.005324576982067914,0.5481961853392574
1.9,0.8323728937024296,0.4627424222646946,2.55602199968437,-0.0015477808482122907,0.5467354819797942
1.95,0.8233001377471373,0.4687591068372979,2.602016561989002,-0.014930805041260885,0.545978491356693
2.0,0.8147596268133049,0.47387362207841194,2.648848739578607,-0.0427613845468908,0.5283627323995129
2.0500000000000003,0.8053564835523306,0.47892233788989225,2.695957420165638,-0.02693588615639472,0.5475602185635005
2.1,0.796512053972114,0.48314717249199485,2.7433491889869397,-0.049908546630173196,0.5280398536295994
2.15,0.7877432406394973,0.4868364247279363,2.7911453978018153,-0.05940885641580756,0.5234717388875509
2.2,0.7786587108483424,0.49015714221669454,2.8389874964566317,-0.055807257447431306,0.5276329700503312
2.25,0.7697594172172482,0.4929354393935695,2.8873188108722663,-0.06731546532459896,0.5220908080368003
2.3000000000000003,0.7594592418411796,0.4956124489753722,2.935432209459941,-0.03380443450191226,0.5529443287624133
2.35,0.7483803308499748,0.4979294006998841,2.9829152800246033,-0.013467688671626961,0.5655941474827904
2.4000000000000004,0.736397331455623,0.4998469523475728,3.029548960063194,0.011635010567106526,0.5803384256718731
2.45,0.7242473768859233,0.5012140034844111,3.0760251275622155,0.014818966926915159,0.5816014974027899
2.5,0.7128528861612871,0.5019621845274774,3.121687371382082,8.455489965291911e-05,0.5569411868492451
2.5500000000000003,0.7011694758208356,0.5021947768275246,3.1664167491665003,0.012277582401715666,0.5577577992848625
2.6,0.6892447379757579,0.5018986951743354,3.2099951591497806,0.025214890673632896,0.5566589148599775
2.6500000000000004,0.6761795306005726,0.5010036058065243,3.252280249494904,0.06157463191613176,0.5772464653932465
2.7,0.6630586090928059,0.4995453221728667,3.292483163859122,0.07685322860119487,0.5671326720672658
2.75,0.6496271702106047,0.49750312303667554,3.3306487226156216,0.098644303037625,0.5640779464095724
2.8000000000000003,0.6361028985976804,0.4949153730712959,3.367130895813924,0.11339205937885054,0.5582966105776562
2.85,0.6231318133078266,0.49193926290891227,3.4021864273480524,0.11083525996712947,0.5383417420906476
2.9000000000000004,0.6107683272165657,0.48864244740947615,3.435738581983761,0.10749901946808481,0.5166716369767261
2.95,0.5981235803493598,0.4848119296096399,3.467921227942169,0.1260133754100884,0.5184846675857975
3.0,0.5848820563286535,0.48033062934290244,3.497743879926831,0.15911238403904557,0.5228032619007729
3.0500000000000003,0.5716972850989047,0.4754256950658967,3.526160978554189,0.16983651247447093,0.5163864957349401
3.1,0.5584730551584993,0.4700735906264238,3.553004258115203,0.18427826205129938,0.5116353298685419
3.1500000000000004,0.545171082883573,0.46426980046977945,3.5786894227504833,0.19735814518584632,0.5105918602502396
3.2,0.5327817022361473,0.4584810027105187,3.6030603081407517,0.1849347915157468,0.4821407109092631
3.25,0.5205134780731976,0.4523802844957076,3.6258072854665673,0.1954791616833574,0.47288132419330225
3.3000000000000003,0.5081325511743136,0.44586816947580693,3.6471310608720566,0.21117460480594885,0.47122064633630656
3.35,0.49582592513207063,0.4390562585835935,3.667084574309219,0.2214078495225209,0.46474337924400944
3.4000000000000004,0.48272214047192935,0.43145767226263976,3.686123486890008,0.2533610380740969,0.4855428988154268
3.45,0.47027769423118115,0.4239212500172823,3.7041858696815924,0.2447075398071536,0.46498050068013386
3.5,0.45715478337155235,0.4156463630647613,3.720661589551152,0.2779288105459951,0.47885222358940444
3.5500000000000003,0.443251704517993,0.4065559942806928,3.736485268899406,0.30866422513755,0.5016359245064976
3.6,0.42907992451816945,0.39696644691162625,3.7512615839911128,0.32725085147594823,0.5074498160089598
3.65,0.415182490177798,0.38726011488794726,3.765641187707349,0.3257694215478148,0.5011304424775213
3.7,0.4004418970302396,0.37664631748937616,3.7802877299414464,0.3537208287592202,0.5323371974677275
3.75,0.3859293616371701,0.36587050617064226,3.7934326959392974,0.3607190819974305,0.5210235453858597
3.8,0.37096508879521045,0.3544510916097464,3.8057529117401443,0.3839918911295596,0.5342384252862273
3.85,0.35608212442470705,0.34280081592333167,3.8177941021980115,0.38756762283599494,0.5344114089075458
3.9,0.3411238163196551,0.3307982989071066,3.829022351699253,0.39930115265156,0.5362310246179169
3.95,0.3252879395158334,0.31779666234689036,3.8394273165794,0.4362977668403309,0.5631875824518837
4.0,0.3097797217891439,0.30479157054464145,3.8486176380033137,0.43760771762031864,0.5496848081558477
4.05,0.29469030087575676,0.29189963832413,3.857241777111578,0.43148027800711297,0.5366527061566746
4.1000000000000005,0.27971027497496553,0.27887601376932997,3.864758044396908,0.43831143312578036,0.5299732292883422
4.15,0.26506723523433545,0.26595083875733566,3.8714408676286407,0.43562867064068056,0.5171265149301006
4.2,0.2505695993274978,0.25298061261188054,3.8771903980690854,0.4393984088244049,0.5095146337078753
4.25,0.23496882815604564,0.23886114649606624,3.882843491878686,0.47873645756456534,0.547676625974329
4.3,0.21921109946230932,0.22443674446431247,3.8889365667039466,0.48389110062334756,0.5581968911753072
4.3500000000000005,0.20319944600601814,0.20959958639653054,3.894879467674003,0.4961824973557859,0.5686568994296454
4.4,0.18830116944075098,0.19562865772827767,3.899611634376186,0.4692950797282499,0.5270044297548713
4.45,0.17375848518477005,0.18186127373702002,3.903454844873549,0.4649986338233418,0.5118670545228896
4.5,0.15958381246407005,0.1683386052616226,3.907418202452102,0.4536479050970022,0.5019815341037464
4.55,0.1451192814251091,0.154429491560362,3.9100918356270435,0.47313736341139534,0.5057426460326306
4.6000000000000005,0.13066694050374966,0.14045753799160265,3.9124311363513753,0.47602576678482034,0.5045538243986247
4.65,0.11602856437565194,0.12623933414260982,3.914596089671861,0.48452702392291125,0.5109288936849342
4.7,0.10117842636225821,0.11175283437685506,3.916811442879376,0.492485140588429,0.519501643119096
4.75,0.08595905514570643,0.09684019872551686,3.9177537991179077,0.5139527137461111,0.5254448629965004
4.800000000000001,0.07112026029657628,0.08227303496696917,3.919323698119396,0.4975991483371469,0.5167442581113949
4.8500000000000005,0.05607333811490543,0.06745509472238888,3.920650624896038,0.5069886770545493,0.5231707109160401
4.9,0.04105497874887702,0.052625976632584295,3.9217213042988797,0.5082465381367881,0.5213036040250995
4.95,0.025830939072168255,0.03756154392273984,3.9222249002450638,0.5193068923625805,0.5254483063404345
5.0,0.010010425902875965,0.021891115097464844,3.9227102138736627,0.5401556857722776,0.546074144657631
5.050000000000001,-0.00556959407244405,0.006443911164633803,3.922976113906697,0.5334947908678541,0.5367374741975433
5.1000000000000005,-0.021519282851972833,-0.009378222496164188,3.922838665427367,0.5487954700374965,0.5471192690700574
5.15,-0.03779117310879203,-0.0255155440203936,3.921863776011262,0.5648949591579807,0.5530060638396266
5.2,-0.053996872466637785,-0.04155591500563602,3.920582141102145,0.5639542298057576,0.5483245357921358
5.25,-0.07072223473631564,-0.058068264636351036,3.918941741520125,0.5832486346103115,0.5632437616588504
5.300000000000001,-0.08757231880825164,-0.0746492536665739,3.917426350252932,0.5858280999644214,0.5673477186571864
5.3500000000000005,-0.10434288006437817,-0.09110204161451267,3.9154824005619906,0.5848662808065185,0.5611595772584528
5.4,-0.12090313807623278,-0.10728545518151483,3.9124449610318166,0.5832723276448752,0.5462303821549507
5.45,-0.13669127880128945,-0.12262084557439307,3.908995920627218,0.5578597177051716,0.5157982493564061
5.5,-0.15288929132474108,-0.1382461391822711,3.9052884984587224,0.5715359739788185,0.526323508509358
5.550000000000001,-0.16873051207471534,-0.15341427923192041,3.901168322200679,0.560052148020743,0.509806096093385
5.6000000000000005,-0.1845883251413278,-0.1684735583510524,3.8973425208349592,0.5567177220882051,0.5100616078721085
5.65,-0.20002096238243003,-0.18301718980016293,3.893140448125565,0.5428356222320477,0.49159083309309004
5.7,-0.21503313142355363,-0.1970459374534332,3.88833022831372,0.530472065968502,0.47181084875088275
5.75,-0.2300383831227812,-0.2109336146660138,3.8829476751388183,0.5314951662748794,0.46585427389802775
5.800000000000001,-0.2447701256073749,-0.2244216645571129,3.8769175241535225,0.5239344808843711,0.4503960542344209
5.8500000000000005,-0.2593180526151227,-0.23758103521598303,3.8704620521462174,0.5178164299931552,0.43909116161138817
5.9,-0.2747166340389638,-0.25133017467471286,3.863420428048748,0.5464373546386876,0.4605638900354046
5.95,-0.2897972855691352,-0.2646057760067089,3.85557719753898,0.53786071797364,0.44221156541549617
6.0,-0.30487714650236264,-0.2776721858989806,3.847536987533328,0.5356909696829346,0.43763962815058877
6.050000000000001,-0.32053232859560205,-0.2910182470218114,3.839166839872077,0.5527905539941939,0.4507155825155231
6.1000000000000005,-0.3363543317552331,-0.3042794593088676,3.8301977345967657,0.5582141481513183,0.4488348155255739
6.15,-0.3520304508147823,-0.3171808063948961,3.8203269034463134,0.5553672930747041,0.43499130343504344
6.2,-0.367200364446057,-0.3294164043670129,3.8096778184397433,0.5402843048509622,0.41041741452693403
6.25,-0.38297041886662686,-0.3418612194686135,3.79776005613228,0.5626449639579875,0.4173063992328275
6.300000000000001,-0.39835744236587756,-0.35370895022391635,3.7854299728030125,0.5488374603185173,0.39847059044940286
6.3500000000000005,-0.41406107028826183,-0.36549492281444923,3.771857876309089,0.5616466128152224,0.39613324093810814
6.4,-0.428594316297006,-0.37609723134127643,3.757194418471873,0.5281810278737691,0.34935837132235176
6.45,-0.4426476353920679,-0.3860370017360031,3.741912776938849,0.5130152833257968,0.32665380121575066
6.5,-0.4575298809831954,-0.3962254892521816,3.7259279020965472,0.5373638961510945,0.3424263980742448
6.550000000000001,-0.4718128744002534,-0.4056720078921035,3.709540151790814,0.5175904232335582,0.3177398097490114
6.6000000000000005,-0.4868610874119234,-0.4152739204750595,3.692200645756458,0.5411102213835209,0.3296528307206389
6.65,-0.5010136003047629,-0.42396274340237583,3.6742020589412214,0.5147939229676675,0.2952989618062495
6.7,-0.515012066912453,-0.4322138259621013,3.654434203225716,0.5168583548724016,0.27578694370770307
6.75,-0.5286712939208158,-0.43990527228226683,3.6335005096975626,0.50998270995132,0.25469376448603287
6.800000000000001,-0.5420775628138369,-0.44708890473665824,3.6109772478003315,0.5083033686581475,0.2336294430821568
6.8500000000000005,-0.555333883456382,-0.45381240372648646,3.587165341870223,0.5077286556702968,0.21733955896165896
6.9,-0.5674644981834959,-0.45960606165319046,3.561551856854354,0.48406149754333316,0.17170192417907704
6.95,-0.5795182959124466,-0.4649883669831931,3.534281264621127,0.48825679815184786,0.155688600185665
7.0,-0.5917045399125754,-0.47003592503260067,3.506149373614169,0.4932490488238845,0.15017720727561923
7.050000000000001,-0.605041974750671,-0.4751256787309386,3.477079289256694,0.5254419824112095,0.17092875853956174
7.1000000000000005,-0.6185612004095539,-0.47983938411743315,3.446390259433593,0.5363335670367525,0.16207710577942425
7.15,-0.6311471647442621,-0.48379893839603494,3.414208747809624,0.5180363177744494,0.12557885894555693
7.2,-0.6423105580237656,-0.4869199625711729,3.3807143325115345,0.4869529829233219,0.07848450367832976
7.25,-0.6532551727067363,-0.4895881062101189,3.3455121275039224,0.4894073221828166,0.06011213916315628
7.300000000000001,-0.6642265077446896,-0.4918569106191423,3.309373399257198,0.49361338428257484,0.05289718615178846
7.35,-0.6741362136331112,-0.49353534764487705,3.2714275128246793,0.4765198401396548,0.013765127547965442
7.4,-0.6841278762619515,-0.49483995262204983,3.231488113063375,0.48930056934174704,0.0022347185941298253
7.45,-0.6934467158073488,-0.49567993789925935,3.190153559269247,0.48025021637712045,-0.023829707941509945
7.5,-0.7024821750184811,-0.49611905320433575,3.147540258573694,0.4804743511995446,-0.039200047526713584
7.550000000000001,-0.7116941926932201,-0.4961738432926196,3.1040067907572975,0.49013530644437614,-0.04076064253606619
7.6,-0.7215067712260538,-0.4958048552893927,3.059275816217243,0.5122501792816405,-0.0332495102312176
7.65,-0.731535617412791,-0.4949774426777158,3.013307543182781,0.5257314312923194,-0.034857264249896956
7.7,-0.7406746411554251,-0.49379856796054306,2.966636146910421,0.5093315297518665,-0.05983183942325586
7.75,-0.7496387760404497,-0.49221403373281924,2.919125874391856,0.5117236575902641,-0.06766990970930968
7.800000000000001,-0.7586197185866571,-0.4901824458425058,2.870922583891377,0.5185044444635113,-0.06934056163989574
7.85,-0.7677090390960682,-0.48766034424593474,2.8222357835221152,0.5269377699262642,-0.06680369799155696
7.9,-0.7762714841302296,-0.48482895088913924,2.772659456663141,0.5222566180887319,-0.08233273384998017
7.95,-0.7859276315979296,-0.48109553300499747,2.7234199242819765,0.5527473376728432,-0.04773476453648033
8.0,-0.7948475021584813,-0.4771316972613836,2.674915218639121,0.533832276164337,-0.057688524358290645
8.05,-0.8041121039282231,-0.4724642553698446,2.6270811833057,0.5446929672067211,-0.03864892710329308
8.1,-0.8136766868647964,-0.4670574275322787,2.5800763237859705,0.5545915669580159,-0.018638427185027562
8.15,-0.8232066747728761,-0.4610624562311133,2.533237614411105,0.5602065185917524,-0.010997254272462434
8.200000000000001,-0.8328301588761332,-0.4543599577693067,2.4873206796915577,0.5660185972381732,0.006055978707110963
8.25,-0.8424476448626625,-0.4469836615058074,2.442238681818816,0.5705114406305767,0.020730978767878282
8.3,-0.8521636087086091,-0.4388107420710811,2.3985866905333655,0.575837043085687,0.043495685946044346
8.35,-0.8615840078938666,-0.43015700461781403,2.3559102147641875,0.5722184365540552,0.05177361010066345
8.4,-0.87138747630518,-0.42034796085105375,2.3149636128178313,0.5879217415650841,0.08857293734122547
8.450000000000001,-0.8804824883778947,-0.4104702428932295,2.275572017770111,0.5676842973706375,0.08729899191063345
8.5,-0.8887418751607686,-0.4007588609597192,2.2377941600795634,0.5412957915613394,0.08059020996929274
8.55,-0.8965398180177837,-0.39085519246484046,2.201691261204072,0.5275830415612448,0.0873037869820787
8.6,-0.9038659299568788,-0.3808261038928571,2.1667004106431156,0.5162838416664047,0.08956615189864385
8.65,-0.9111017398026425,-0.3701560306156791,2.1332819656546884,0.51821357188682,0.11067155983282806
8.700000000000001,-0.9184116940176361,-0.358560614883625,2.1012724512723038,0.5295034870684272,0.139143555575934
8.75,-0.9249268488059886,-0.34745315668370796,2.070773766458306,0.5000461976111102,0.1281110169525998
8.8,-0.9312142754586737,-0.33594348223999876,2.0410704890066667,0.500996630743413,0.13876153986975862
8.85,-0.9373006173356841,-0.3239698210731069,2.012685753169887,0.5006815077613729,0.1545261926786981
8.9,-0.942806472729016,-0.3123317682793393,1.9855157862465682,0.479688376452461,0.14834731641198654
8.950000000000001,-0.947888554248761,-0.3007882406065827,1.9596780683809296,0.4651742591785355,0.15008013886586846
9.0,-0.9524325140555575,-0.2896986040976196,1.93512523282818,0.44201664723131046,0.14259182341729132
9.05,-0.9570304493042613,-0.27764170879055944,1.9116669651871492,0.45776663295782616,0.17169019831110954
9.1,-0.9618846146674372,-0.2639570851881339,1.8895262782559372,0.4891517432903687,0.2191433660804661
9.15,-0.9664171880980815,-0.25022120141887766,1.8681886812998405,0.48289742224354243,0.22268282521797175
9.2,-0.970552443027958,-0.23672852215545326,1.8473804176564348,0.4710783931393919,0.2173190804149333
9.25,-0.9743710694995811,-0.22327600280741786,1.8274711980752636,0.46247078913408857,0.21967542838809961
9.3,-0.9779594876862964,-0.2096039755375352,1.8080180292294115,0.46337543941182346,0.22614167299899218
9.35,-0.9813292006177257,-0.19566652691868325,1.7890837358054932,0.4651851567580785,0.23427913939322173
9.4,-0.984352251562512,-0.18203824564797824,1.7712460365810112,0.4492431579668236,0.23171024059509154
9.45,-0.987202494173707,-0.16800996078011216,1.7543116491381863,0.452402615703007,0.2458856956685559
