time,x,y,theta,left_vel,right_vel
0.0,0.9998963712845949,0.013192518812813884,1.5852543209669552,0.2748134507401571,0.3534211118374024
0.05,0.9997037635236431,0.026513477306446924,1.5962608712816007,0.25168365000402426,0.3827140108926612
0.1,0.999358337071004,0.040075541472444395,1.608615434553411,0.2494719440322192,0.39655007822043564
0.15,0.9988568967118154,0.05332813516300503,1.62227970124956,0.234428813341415,0.3970986549622366
0.2,0.9981514963901503,0.06701754439255603,1.6367779333875956,0.24007174765010228,0.41266974929338185
0.25,0.9971709033474558,0.08185758319224354,1.6521387667669,0.26267125592534674,0.4455383199646856
0.3,0.9959281927752162,0.09710139105445477,1.667614054026253,0.272037059266148,0.4562666694965406
0.35,0.994399625739556,0.11284011986408934,1.68291484338769,0.285418702809605,0.4675709571124273
0.4,0.9926728654634801,0.1281767369420284,1.699146226362833,0.27084937537125453,0.46408012507533924
0.45,0.9907486240680704,0.14308647448490386,1.7160565967499395,0.2572810201478785,0.45859495332771777
0.5,0.988550108522624,0.1581148814762699,1.7336092391711524,0.257147767520446,0.4661077963444098
0.55,0.9863197778721241,0.17169235803345925,1.751611363681908,0.22045025914160832,0.43476126522203173
0.6000000000000001,0.9839563675989395,0.18462047226985293,1.7701520629768306,0.20255222679923107,0.42327483745307204
0.65,0.9811054028755058,0.19873140770088474,1.7893597798716367,0.22843164799479831,0.45709494436153925
0.7000000000000001,0.9780978101474805,0.21227232036578475,1.809110606384852,0.21269513435376014,0.4478240214158466
0.75,0.9747985627364454,0.2258533396303076,1.8295947715296317,0.2108328117848859,0.4546919206513093
0.8,0.9712134129326133,0.2393957305047022,1.8501009965317705,0.21148468983866822,0.4556064160546065
0.8500000000000001,0.967095726291317,0.25375299320076905,1.8711265157854635,0.23046893221202772,0.48077273285123134
0.9,0.9626937294211196,0.26796682687445467,1.8926493162936702,0.2261708016124574,0.4823946171863451
0.95,0.9581928625786695,0.28146481835062775,1.915576110754708,0.20230760944741658,0.47524563874548625
1.0,0.9535729876489789,0.2943291107855637,1.9390617164800577,0.18564988276872957,0.46524042711812946
1.05,0.9487403742156248,0.3068530870172206,1.9635687686661445,0.1737440538039104,0.4654946750668489
1.1,0.9439720911859507,0.3183623524017382,1.9885944002690394,0.14765499457331316,0.4455791803220627
1.15,0.9391530495529523,0.3292176612914518,2.0147908092261892,0.12685246770546507,0.4387144791001038
1.2000000000000002,0.9341859197393549,0.3396600574394099,2.0417571102791183,0.11480925925493235,0.4358366527421844
1.25,0.9292359635975922,0.349381576322,2.070744733756026,0.0871967705849661,0.43228752626244
1.3,0.9237735422159914,0.35938169783047663,2.1010447777578265,0.0909463233403909,0.45166113288563425
1.35,0.9174351446697228,0.3701934485206756,2.1322155002546683,0.11285823790940798,0.4839382676337177
1.4,0.9111060090885904,0.38025681439619646,2.1649904164257463,0.08796358491578492,0.47814115838099763
1.4500000000000002,0.9044907172009856,0.390047860367298,2.198545372316178,0.08161033105507219,0.4810740916554512
1.5,0.8973403090113535,0.3999013484273466,2.233311855243934,0.08292678615314542,0.4968134876740471
1.55,0.8901396149556285,0.40913130898353295,2.2697997447789215,0.061536396733439865,0.495916034054722
1.6,0.8826205780827157,0.41807630100944715,2.3078021937497644,0.05201898502349195,0.5044290918192421
1.65,0.8747894838373025,0.4267045216372832,2.347157141390103,0.043176122750816545,0.511687404183419
1.7000000000000002,0.8663997318845605,0.4352473029655711,2.3875864160012568,0.04443522412941782,0.5257361123574394
1.75,0.8577229934484296,0.4433956946016981,2.429174423541345,0.03585776521836868,0.5309530930765605
1.8,0.849176289464292,0.4507778437135636,2.472394764832463,0.011628006169995148,0.5261558786833097
1.85,0.8402799971636464,0.4578143610720228,2.51711377027196,0.0038794670801577634,0.5362485794551232
1.9,0.8312155652770057,0.4643470278810899,2.5622535966775093,-0.0026616569031833563,0.5347172288771663
1.95,0.8221105414111626,0.47030375490348303,2.608419832407037,-0.015740837435084108,0.533857206964056
2.0,0.813562220092753,0.47534886311669716,2.655413483714245,-0.04338905663469918,0.5160591732130148
2.0500000000000003,0.8041212927914807,0.48033830102589886,2.702650800062653,-0.02692981241267241,0.5354191917350397
2.1,0.7952624066527325,0.4844974462120492,2.7501496471969107,-0.04971595858599433,0.5157465072980298
2.15,0.7864813321213399,0.48812177100136894,2.798026843757054,-0.05880160863667594,0.5111650170793187
2.2,0.7773713501765557,0.49138090312561394,2.84591295399331,-0.054669275507592575,0.5154034654002119
2.25,0.7684530841043218,0.4940974857442514,2.8942798325055956,-0.06592577541529045,0.509870397350015
2.3000000000000003,0.7580844343444475,0.49671537794076703,2.9423961214998906,-0.031786742741612924,0.5410262214761841
2.35,0.7469144524796615,0.49897030337523424,2.9898419361135016,-0.011098560652183074,0.553732565700329
2.4000000000000004,0.7348168856070972,0.5008203407371377,3.0363971774268466,0.014271399812948567,0.568500463067056
2.45,0.7225586697592997,0.5021146273459329,3.082793840858312,0.01731403299894612,0.5696552643259144
2.5,0.7110916368197164,0.5027896533702696,3.128360182010275,0.002269017513866161,0.5447254597991411
2.5500000000000003,0.6993331659329981,0.5029452560841264,3.172972466656872,0.014438791531804123,0.5455374182770061
2.6,0.687332784725278,0.5025685627145774,3.216410625000119,0.027303628350012345,0.5444245610077142
2.6500000000000004,0.6741633120273568,0.5015814068514116,3.2585312723289923,0.06372039526751835,0.5651566729922013
2.7,0.6609470123773464,0.5000288275775647,3.2985253239376817,0.07877782319106602,0.5548974851992721
2.75,0.6474205526167947,0.4978884845186918,3.3364491210934113,0.10032859227143737,0.5518023679348861
2.8000000000000003,0.6338095572903912,0.4952022092448671,3.3726887617038317,0.11461036874490163,0.5460346617260954
2.85,0.6207782631396217,0.49213594755818035,3.407496961408914,0.11155071570567848,0.5259340455280865
2.9000000000000004,0.6083794592970146,0.48875908743435437,3.440806449179419,0.1076918305669331,0.5042333516443727
2.95,0.5956940219717116,0.48484594685826155,3.472758124931922,0.12588948651984405,0.5062665788115506
3.0,0.5823967904879316,0.4802739917178675,3.5023249595204717,0.15879893160635972,0.5107850576605261
3.0500000000000003,0.5691627140218315,0.475281580083987,3.53048837911306,0.1691327858080205,0.5044115904816897
3.1,0.5558920144907181,0.46984371665706276,3.5570849096689674,0.18315426214692943,0.49977962590773145
3.1500000000000004,0.5425449243020093,0.46395529196159246,3.582541621454989,0.19581231968648966,0.498868412377222
3.2,0.5301412323438949,0.45810148939293405,3.606703772987946,0.1827403513420621,0.47038501244869724
3.25,0.5178612468737231,0.45193901533295255,3.6292358856407034,0.19301146766725547,0.4612509040096065
3.3000000000000003,0.5054635018250011,0.4453636894151899,3.6503487353889223,0.20845911822991356,0.45980256761347266
3.35,0.49314096301615906,0.43849108011168,3.670097243367868,0.21838960656325243,0.45349089202688786
3.4000000000000004,0.47999624846106725,0.43081575000728384,3.6889641848716286,0.25011356128981166,0.47472000776315365
3.45,0.46753260606718244,0.4232192282833232,3.7068738442928435,0.24092383882287638,0.4541340700278134
3.5,0.45436955695373543,0.4148694969910737,3.7231986595586073,0.2739699100275777,0.4683129489057173
3.5500000000000003,0.4404053518270588,0.4056885034735353,3.7388992664053275,0.30444785894960585,0.49135984522008613
3.6,0.42616980467798365,0.39600562576729614,3.753551566708743,0.3227013202103457,0.4971334666795745
3.65,0.4122232758747783,0.38621741238140384,3.767832421497169,0.32067649107283736,0.49068666712552966
3.7,0.3974135610851686,0.37550449053968077,3.7824314902258864,0.3482971601061153,0.5220955973527522
3.75,0.3828469000119906,0.3646399685297052,3.7954866512333423,0.3549599098043334,0.5103784932264251
3.8,0.36782155439401065,0.35312503867550393,3.807711787427453,0.37795173090317136,0.5234890665473435
3.85,0.35288805948687174,0.3413879575693097,3.8196857561844726,0.3809621570596606,0.5235094041670378
3.9,0.3378841083814959,0.3293020897110828,3.8308420121281617,0.3923129403330972,0.525125511091299
3.95,0.32198289604217345,0.31619829937381794,3.841160633753022,0.4291701625437564,0.5520108961730446
4.0,0.306428801072669,0.3031087486855997,3.85024836977096,0.4299289519446562,0.5381162854915383
4.05,0.2913136152863319,0.29015210310540107,3.858785761230921,0.423191188581281,0.5248268011998646
4.1000000000000005,0.27631609257234147,0.2770725536773464,3.8661913935365995,0.42972257675083314,0.5178848661041483
4.15,0.26166952567132945,0.2641068675175765,3.8727687825009958,0.42658588628193495,0.5048881358580801
4.2,0.24717459331853692,0.2511043649136357,3.878402366725821,0.4300915269097819,0.4971580057767503
4.25,0.2315436248312837,0.23692306913913747,3.883959100766868,0.4694328327713813,0.5355844284981298
4.3,0.21575592916598774,0.2224388313721689,3.8900096604436074,0.474111508845085,0.546141981187217
4.3500000000000005,0.19971200504064643,0.20753973776929685,3.8959241993825318,0.4861036448269506,0.5565148226712863
4.4,0.18482151395521362,0.19354684452612908,3.9005805959953315,0.45879517892315763,0.5142284719326772
4.45,0.17029800962423966,0.1797709084869326,3.904339376189926,0.45423837876523127,0.49898576203421313
4.5,0.15615260375284332,0.16625224093123764,3.908253958458767,0.44256732839996465,0.4891694982671202
4.55,0.14170557798416145,0.15233670270942706,3.9108373829724385,0.4622149079203843,0.4929699616545684
4.6000000000000005,0.12726926859661156,0.1383594104856312,3.9130954341325,0.46498950328227345,0.4918710647115743
4.65,0.11263930420961077,0.12413047733954385,3.915192648278567,0.4734283049649055,0.4983951400371342
4.7,0.09779003045505459,0.10962752220238953,3.917368310308715,0.4812545046260412,0.5071552430801844
4.75,0.0825601839487444,0.09468798970737496,3.9182299761778796,0.5028224686881423,0.5130803957020076
4.800000000000001,0.06772428784223342,0.08010979238398297,3.919775811876997,0.4860296240407445,0.5044324299826208
4.8500000000000005,0.05267405943190726,0.06527518694412891,3.921075937463166,0.49541160253131383,0.5108892880809427
4.9,0.037654389299140945,0.05043215316717791,3.922123881913595,0.4965358027163223,0.5090113318880972
4.95,0.022423659915573067,0.035348960837324896,3.922590573049024,0.5075895403506461,0.5131453872009893
5.0,0.006579629688136485,0.019643755836940897,3.9230546871042677,0.5284015626362564,0.5339267299605873
5.050000000000001,-0.009012007830961708,0.0041743791355126885,3.9233031532101816,0.5214644619447976,0.5244223917771049
5.1000000000000005,-0.024981601490331667,-0.011677865750596499,3.923137393307252,0.536738828545927,0.5347654963681953
5.15,-0.04127888978596784,-0.027850034850932952,3.9221035105998667,0.5528098724872333,0.5405017450183577
5.2,-0.05750246992542512,-0.04391580578219165,3.920768605849001,0.5515718564941313,0.535680133269537
5.25,-0.07425711553369416,-0.060463236168100884,3.9190780656280158,0.5707432064097692,0.550617727588517
5.300000000000001,-0.0911336184903796,-0.0770747512341941,3.917532030800595,0.5730203492373653,0.5546151727204502
5.3500000000000005,-0.10792109891915408,-0.0935476197511092,3.915548416272396,0.5717993820178632,0.5481849233488268
5.4,-0.12448553353924284,-0.10973725284581654,3.9124391126138294,0.5699872757897742,0.5329717560449333
5.45,-0.14024891461301603,-0.12504841444120374,3.9089197326029015,0.5441712254331676,0.5022738443506919
5.5,-0.1564343279558031,-0.1406591739069335,3.905148455089941,0.5578519143807912,0.5129557535122149
5.550000000000001,-0.17224938709707363,-0.15579801912559588,3.9009589264934514,0.5461980965725728,0.49632275613817217
5.6000000000000005,-0.18808139840895277,-0.17082649217148857,3.8970987764896003,0.5427164565294005,0.4967622898168875
5.65,-0.2034744545839104,-0.1853257401482844,3.892861622324041,0.5287091992196234,0.478266887724872
5.7,-0.2184353249428316,-0.1992987373212003,3.8880022561475704,0.5163356381762301,0.45848604083729444
5.75,-0.23339263957583392,-0.21313294287763299,3.8825563061339605,0.517515480263386,0.45268274200612363
5.800000000000001,-0.24807129440196546,-0.2265618301850905,3.876441791935331,0.5100785532997816,0.43728671760181154
5.8500000000000005,-0.26256517528827933,-0.23965978168107507,3.86990955194888,0.5040091627359659,0.42624440099250516
5.9,-0.2779423204524032,-0.2533745194483115,3.862786346858517,0.5329863710417168,0.4481863104421541
5.95,-0.2929926127383971,-0.26660646633122564,3.854847113128798,0.524396705491602,0.429882018233042
6.0,-0.3080446693622893,-0.2796295565875824,3.8467277843096177,0.5222317509957423,0.42557307457693005
6.050000000000001,-0.3236928895415133,-0.2929478325068789,3.8382928891142196,0.5394591091968538,0.439043690204019
6.1000000000000005,-0.3395126099677766,-0.3061836106263588,3.829255920939878,0.5448968161977962,0.43731386174134923
6.15,-0.3551799591493894,-0.31905300927035074,3.8193017016147035,0.5419962275634478,0.42349361654946666
6.2,-0.37032349002348897,-0.33124172370366844,3.808565279478736,0.5267507530521328,0.3989362038144251
6.25,-0.38608734631825503,-0.3436532130020872,3.7965391257708396,0.549286747668985,0.40611825114641226
6.300000000000001,-0.40145392323805695,-0.35545534360803976,3.784115655136984,0.5352780148591112,0.38737955493225845
6.3500000000000005,-0.4171464397224874,-0.3672007657877305,3.770411327405348,0.5482704239161057,0.3851236652061532
6.4,-0.43162825269187344,-0.37773348910309185,3.7555939793511004,0.5145559877633177,0.3381589871175144
6.45,-0.445617901824562,-0.38759467415828935,3.7401734811753906,0.49930956618232303,0.31573220694768295
6.5,-0.4604688525033339,-0.39772384558178114,3.724053557677661,0.5239613784184247,0.33205752725497706
6.550000000000001,-0.4747025640675379,-0.407099468587537,3.7075494336449846,0.5040503938253409,0.3075727267696683
6.6000000000000005,-0.48973046233201467,-0.41664637566625984,3.6900881474869425,0.5278401498826382,0.3199676956202328
6.65,-0.5038339567540961,-0.4252641336096875,3.6719843982484273,0.501283878002173,0.28576305373413735
6.7,-0.5177811438108105,-0.4334433688992493,3.6520616977793914,0.5035543835396568,0.2663793779558971
6.75,-0.531382106659105,-0.44105956367780497,3.6309658421654203,0.4967186724161508,0.24557753415458877
6.800000000000001,-0.5447265420831485,-0.44816658679264265,3.608253936944152,0.49516576655460576,0.22478594249188663
6.8500000000000005,-0.5579223787772374,-0.45481429025173814,3.584253810867108,0.494660884058321,0.20894509742684422
6.9,-0.5699608923365854,-0.46052097393662533,3.5584277503920054,0.4709316489064466,0.1634785480123671
6.95,-0.5819302544398691,-0.4658207898826731,3.53093204717029,0.47533663989435426,0.14800683963583317
7.0,-0.5940475345084281,-0.47079230266676636,3.5025990922862453,0.48049369669708986,0.14319661474418077
7.050000000000001,-0.6073638716813976,-0.47581991662716666,3.4733454342591266,0.5130294817129288,0.1647716480567514
7.1000000000000005,-0.620871385212353,-0.4804730452490602,3.4424632750795854,0.5239775092118638,0.15633275707446648
7.15,-0.633416973023591,-0.48436582117522925,3.410085291933041,0.5054798220172145,0.1200276417012068
7.2,-0.6444977640672289,-0.48741454562491837,3.3763819595613835,0.47424715996070693,0.07301701267907078
7.25,-0.6553639546156594,-0.49001374865256764,3.3409651057076064,0.47683204877016055,0.05520283622519702
7.300000000000001,-0.6662701299596367,-0.49221741536663266,3.304630427025044,0.4811964476105309,0.048640749008598015
7.35,-0.6760900072057301,-0.4938327644169366,3.2664712018843765,0.4640870822333764,0.009810592463520867
7.4,-0.6860067561615695,-0.4950776314573309,3.226288221198215,0.47715056885944973,-0.0012182488329470047
7.45,-0.6952423223927323,-0.49586171871996076,3.1847196693758835,0.4681173430409352,-0.026746369129681286
7.5,-0.704199718308334,-0.49624826415510936,3.141876700313367,0.46848749402234713,-0.04154785195998761
7.550000000000001,-0.7133550400325928,-0.49625086469431834,3.0981382887925353,0.4783315469953341,-0.042363828252665145
7.6,-0.7231421502582938,-0.4958253041431167,3.053209203044956,0.5006816511796646,-0.034188417243900725
7.65,-0.7331600089914673,-0.4949375784871203,3.0070460299240236,0.5142358976022979,-0.03532568717070249
7.7,-0.742268244635314,-0.4937046473063602,2.9602135039364113,0.49760561564336814,-0.05992445563773186
7.75,-0.7512052405653288,-0.49206564957489013,2.912558543376064,0.4999948791449397,-0.0673260799068153
7.800000000000001,-0.760168519180844,-0.4899760874926937,2.8642336150081795,0.50678220835637,-0.06851455792796987
7.85,-0.7692500167191132,-0.48739061099854286,2.815443069040548,0.5152381678849022,-0.06560166506308948
7.9,-0.777792776626653,-0.484501207376651,2.7657607984112347,0.5104461478716601,-0.08100945485826168
7.95,-0.7874687662516424,-0.4806831815120964,2.7164669445784786,0.5410830271981975,-0.04574856604889815
8.0,-0.7963903368732623,-0.47664407763384437,2.6679730231024563,0.5218281740497729,-0.055480414950494
8.05,-0.8056689013166982,-0.47188855442525063,2.620177147411487,0.5327433876747003,-0.03625513245588892
8.1,-0.8152563020039784,-0.46638114013796966,2.5732404128571864,0.5426392782229471,-0.016131371233014634
8.15,-0.8248062613359047,-0.4602820941699504,2.5264750411268784,0.548159977640405,-0.0085706381965981
8.200000000000001,-0.8344511948433048,-0.4534673335328208,2.480666671243764,0.5538488658417381,0.008511129137994053
8.25,-0.844087460621844,-0.4459742723453307,2.435711131857946,0.5582282683890467,0.023043275700736568
8.3,-0.8538222350367447,-0.43767642151405584,2.3922149917654942,0.5634629688662591,0.045651777289456255
8.35,-0.8632502334186064,-0.42890428480640025,2.349697787834898,0.559692698485583,0.053535508835629866
8.4,-0.8730697053877433,-0.41895638832120996,2.308946914743941,0.5753727032456049,0.09024326168659498
8.450000000000001,-0.8821594729347804,-0.4089643817455858,2.269762109112078,0.5548601804738634,0.0883743991421575
8.5,-0.8903927515999563,-0.399168946402148,2.232200563793673,0.52824712158284,0.08108586779230027
8.55,-0.8981569078312168,-0.3891938939322912,2.196328542258222,0.5144896865097937,0.08744181108776403
8.6,-0.9054426299582539,-0.3791069735657468,2.1615549595815606,0.5032469996668473,0.08927577732563949
8.65,-0.912642378388465,-0.3683715744111705,2.128360293847367,0.5053526052014512,0.11017801312771744
8.700000000000001,-0.9199240922054184,-0.3566939485284798,2.0965734240890765,0.5168721991263545,0.13845708295622902
8.75,-0.9263972612601107,-0.34553828150168225,2.066293243986557,0.4873274093973721,0.12684907484357189
8.8,-0.9326443436250664,-0.3339796661815927,2.0367714716479277,0.4885530087851962,0.13710333808722908
8.85,-0.9386928196823977,-0.32195277826396546,2.0085688676825604,0.48840056566660084,0.15265528036460707
8.9,-0.9441542013672045,-0.31028471085410747,1.9815647368256366,0.46747585864431207,0.14599811034759996
8.950000000000001,-0.9491901963051778,-0.2987221993808959,1.955890812678132,0.45309760367292234,0.1474556495359636
9.0,-0.9536845553297463,-0.28763410690057456,1.9315026466084173,0.4300325213912476,0.13969721103750007
9.05,-0.9582433642300692,-0.2755484902273817,1.9082090791807436,0.44619610108535096,0.16889172694637788
9.1,-0.9630715245094572,-0.26178632530993023,1.8862386504888684,0.47802691195021435,0.21647418942789165
9.15,-0.9675763615958549,-0.24798215294506082,1.865058937908051,0.47179903318269273,0.2196595976967731
9.2,-0.971680629892731,-0.23443943607659806,1.8443806209217164,0.4600132846647598,0.21384284435125125
9.25,-0.9754672712048441,-0.22094563563142808,1.8246028699406815,0.45141609999387916,0.2159666835529892
9.3,-0.979024600111168,-0.20723198685848948,1.8052549965919462,0.4524879256672204,0.22215610008703862
9.35,-0.9823640390272567,-0.19325074712344026,1.786413782618345,0.4544006352058898,0.23010046885349575
9.4,-0.9853550132072401,-0.1795947151698338,1.7686891772250763,0.43835455999615575,0.22734735293343192
