time,x,y,theta,right_vel,left_vel
0.0,0.9999000723101451,0.012721357426641959,1.5850184979836635,0.3534211118374024,0.2748134507401571
0.05,0.9996992568719137,0.026840291570180055,1.595636675570444,0.4141952241993603,0.28310661201688325
0.1,0.999307653658781,0.04260185224816904,1.6115071482837295,0.48726031818815924,0.2913285562957473
0.15,0.998722504584244,0.05696721624048307,1.6260866505119895,0.44499141097487654,0.2649975563050008
0.2,0.9980236425456013,0.06959419509458095,1.6390439672365882,0.3922378546362718,0.2322709814930783
0.25,0.9970049421109496,0.0844975430003701,1.6545535826422073,0.46458091868273754,0.27310418528003283
0.3,0.9956915366591181,0.10014195135397246,1.6711189409964977,0.48989589477657797,0.2853852978100294
0.35,0.9941728022094286,0.1152296349686504,1.6874263714638698,0.4750811579275712,0.27375485586124887
0.4,0.9923824384835356,0.1305107618183205,1.7043377026414923,0.48428353713731553,0.2755016707469143
0.45,0.9904113581328278,0.14518298927838877,1.7210157011457852,0.4684823065142236,0.262581090411843
0.5,0.988060324863777,0.16071575430796553,1.7392054778246575,0.5001759849497599,0.2756108407661506
0.55,0.9855804623724037,0.17530150397846608,1.7568595399608555,0.47428582485366433,0.25633444045615905
0.6000000000000001,0.9828767503324036,0.18966457630768657,1.7748793996494312,0.47210607662028836,0.24963867305762547
0.65,0.9799334092705757,0.20388605885517908,1.7934287609470565,0.47309167195950286,0.24408721149499424
0.7000000000000001,0.9766870715452751,0.21822594846121057,1.8129315451513344,0.48341866030522107,0.24264354667215993
0.75,0.9731889049221409,0.23238965715193316,1.83307836531948,0.4845928348032519,0.23586665988787348
0.8,0.9696344884659317,0.2456293560485969,1.8528321697225463,0.4604190238802287,0.21654489544731256
0.8500000000000001,0.9656233498671599,0.2594723341874597,1.8745519701812134,0.48993457317518885,0.2217888885002845
0.9,0.9614713267926932,0.27271828296573825,1.8964768121820321,0.4780902053328769,0.20741314359437554
0.95,0.9570536859840792,0.285799617261566,1.9193779521606595,0.48228186820472313,0.19955174501179127
1.0,0.9524779950299542,0.29839019096783637,1.942755465926504,0.4750772269428029,0.18646594588299392
1.05,0.9475843967948666,0.3109340594224411,1.9675190389570694,0.4853212670941891,0.17959814326004914
1.1,0.9424266660209586,0.32324557656166525,1.9934319050209175,0.48954225634736054,0.16963032963318675
1.15,0.9370635121914862,0.3351706534730908,2.02026114533423,0.4884665028917236,0.1572413138384829
1.2000000000000002,0.9314896371700885,0.3467252363517661,2.0481144880080184,0.48869312847885876,0.14482470040739662
1.25,0.9256284811714974,0.3580575605559429,2.077451657663311,0.4961138792965483,0.13392659960158096
1.3,0.9197637819131427,0.3686250481164026,2.106902599892639,0.4802106820686973,0.11661880269427623
1.35,0.9135131836034841,0.3791452999123421,2.138513548420393,0.4972789815162283,0.10702035771679479
1.4,0.9071370720399787,0.38914308183136836,2.170984731752354,0.4932277338845047,0.09234892731708846
1.4500000000000002,0.9004950044688587,0.3988478410807372,2.205108814382369,0.5010147597695443,0.07972978902861694
1.5,0.8934587059936702,0.4084113992643629,2.241587104724562,0.5183382578418579,0.06798899435799798
1.55,0.8863978871156037,0.417309249593482,2.278492856501375,0.5082824430561655,0.05265587791032126
1.6,0.8791366937730836,0.4257965990941859,2.316804965954918,0.512287168501339,0.03929816290204153
1.65,0.8716308200665976,0.43391835630181264,2.3567624174769235,0.5197122163256281,0.02641034568358408
1.7000000000000002,0.8638933223362703,0.4416470703475389,2.3982716009390943,0.5262607618606563,0.01380170677212679
1.75,0.8559035118597454,0.44899128816855527,2.4413998164405957,0.5341840703013009,0.0017369653444946757
1.8,0.847598474046728,0.4559892631801391,2.4864150769037288,0.5460266143557378,-0.009717341979237626
1.85,0.8391400422459925,0.46248877723911674,2.5323277233529256,0.5467985842277538,-0.02002421144134385
1.9,0.8305733767578751,0.4684668129966091,2.5787846024420156,0.5447035837566124,-0.02883813339264728
1.95,0.8216250017569529,0.47411205862060707,2.627136256484869,0.5597083515643533,-0.03722564896470256
2.0,0.8125417776966675,0.47924611576130366,2.6758442173417407,0.5582903113390915,-0.043042538745743264
2.0500000000000003,0.8032532741892707,0.48391478512608366,2.725105676875793,0.5607696379717642,-0.047396529115298736
2.1,0.7937904649038717,0.48810080561888847,2.7745455136555157,0.5606741521065911,-0.04969420319862712
2.15,0.7840720875237572,0.4918372297437627,2.8243638983560797,0.5646049179780585,-0.05043686844865724
2.2,0.774104491305968,0.49510975743632335,2.8742812272646323,0.5671702631005902,-0.049093056758085174
2.25,0.7640640326936954,0.49785949542470853,2.923193578826245,0.5589696018725672,-0.044886590246109546
2.3000000000000003,0.7537805288019359,0.5001418064177922,2.9717300780949576,0.5597000346140019,-0.0395160057404738
2.35,0.7432930783838098,0.5019405651640853,3.019489748050347,0.5575433875370576,-0.03208216746775064
2.4000000000000004,0.7325941185851724,0.5032534704903453,3.0663171079729534,0.5552112170848165,-0.02290433751526174
2.45,0.7217401779056952,0.5040720535232245,3.111806933405129,0.5495610181807103,-0.012041764932566257
2.5,0.7106361917690227,0.5044028915916587,3.1562188403241334,0.5484417371801668,0.0001465900319621744
2.5500000000000003,0.6993588548821462,0.5042379353935473,3.1991296302503596,0.5433639686424041,0.013601130047019377
2.6,0.6879199945092059,0.5035790507106721,3.240421904629539,0.5377997361734729,0.028018570998421387
2.6500000000000004,0.6763261178790612,0.5024294914610071,3.2800278049936384,0.5321531615264928,0.04319142863637459
2.7,0.6645787499649803,0.500792773912091,3.3179214823951875,0.5267718063948653,0.05894862859796311
2.75,0.6525713581126882,0.4986533051207738,3.3544260363577374,0.5264850766796405,0.07581157096914734
2.8000000000000003,0.640388033255877,0.496020411318981,3.3892810803446847,0.5229217817819397,0.09261259675789983
2.85,0.6281251293851623,0.49291935491147904,3.422251362847421,0.5158394552911241,0.10879893056598236
2.9000000000000004,0.6156312147077602,0.489317763647674,3.453783851492481,0.5156985115619643,0.12640852828962265
2.95,0.6030045733123008,0.4852425752142882,3.483673394569562,0.512107741330657,0.14310103667533902
3.0,0.5902007915527121,0.48068340832529094,3.512080990929576,0.5109426372901569,0.1602315711171442
3.0500000000000003,0.5772541364774885,0.47565460292297185,3.5389900486110517,0.5090439574083103,0.17683336874811512
3.1,0.5641828239311767,0.47016819721382147,3.5644310171465565,0.5070684762522053,0.19298244494967778
3.1500000000000004,0.5509606349029053,0.46421845958938357,3.5885224956972244,0.5067167980305495,0.20929113691119497
3.2,0.5376197307228043,0.45782450966748967,3.6112741632664247,0.5057262461722745,0.22484146136733002
3.25,0.5241307011176533,0.45097794642029976,3.6328028994256836,0.5064022330406253,0.2406153668769328
3.3000000000000003,0.5105028192342456,0.4436877966461721,3.653156990200187,0.5072542025578319,0.2559691312676713
3.35,0.4967326142339561,0.43595700656709707,3.672402826158479,0.5087245657360373,0.2711216526707014
3.4000000000000004,0.48282427978998405,0.42779273311437505,3.6905931665382434,0.5104965956108231,0.2859244921569376
3.45,0.4688183652858825,0.4192248829507313,3.7077343863774024,0.5112099898583341,0.2995899918440286
3.5,0.45470093338854634,0.4102527107113044,3.7239012411347674,0.5128145570493962,0.3132237575757532
3.5500000000000003,0.44046971103351545,0.4008818351528975,3.739149429065761,0.5148504312700004,0.32660119755402883
3.6,0.426114411580531,0.3911122495848939,3.753538817848322,0.5175718983412333,0.3399251232478821
3.65,0.41164477728653925,0.38095717586642075,3.767105283042863,0.5202263736353475,0.35273914901138675
3.7,0.3971061583430433,0.3704564518433084,3.779852068631005,0.5215043830872345,0.3641366597768374
3.75,0.38247187710880526,0.3596001295690352,3.791845792498508,0.5239481392321619,0.37587747420125833
3.8,0.3677356720499912,0.34839171443251526,3.8031299910070406,0.5268020935855733,0.3874910008876392
3.85,0.3529091403219083,0.3368482039393138,3.8137315744492413,0.5294020682655654,0.39851832206555493
3.9,0.33799846491084745,0.32498316012772643,3.823679921058099,0.5319127561454126,0.40909366220889604
3.95,0.32299218805380725,0.31279627130063936,3.833013518460319,0.5349368798589553,0.41970728230068616
4.0,0.3079243080925103,0.3003241705719081,3.841740552107766,0.5368339848187167,0.42909282867739423
4.05,0.2927862890807304,0.28756976530733347,3.849893775982892,0.5390892646675924,0.4384321797894927
4.1000000000000005,0.27756618266888994,0.2745325420964754,3.857504312925607,0.5418052833674236,0.447848037161065
4.15,0.2622682537218016,0.26122547927364925,3.8645922973641373,0.5443878873986198,0.45688190667601847
4.2,0.2469226351935526,0.24768467383805695,3.8711652010175217,0.5458973200939028,0.4647503614101445
4.25,0.2315087456550302,0.23390237481262804,3.877251553037297,0.5481141367711383,0.4729739883788499
4.3,0.21604303322023446,0.21990342288123294,3.8828625898352565,0.5497091899445203,0.4804371307104566
4.3500000000000005,0.20052353432125636,0.2056965482797391,3.888015403711964,0.5513186722291495,0.4877036860969587
4.4,0.1849593208799937,0.19130063480808515,3.8927218743081347,0.55253648486831,0.4944319096069466
4.45,0.16935834347978296,0.17673387862208895,3.8969933434835204,0.5533878526869429,0.5006536653365011
4.5,0.15371469610941113,0.16200170262023736,3.9008436599977863,0.5543505516976208,0.5068157799165597
4.55,0.13802743085946595,0.14711406635687163,3.9042836139349166,0.5552370667317855,0.5127684996067193
4.6000000000000005,0.12231251933086928,0.13209710956564003,3.9073192279108433,0.5554375197157222,0.517960803963543
4.65,0.10657741992288501,0.1169692126640822,3.909957795605711,0.555241953221015,0.5226670434078317
4.7,0.09081710566682347,0.10173684842150418,3.912207603797691,0.5550806078247853,0.5273051980472546
4.75,0.0750349755521396,0.08641457483785017,3.914074264906763,0.554647002775432,0.5316018038980013
4.800000000000001,0.05923840664087035,0.07102089875653278,3.915561993431753,0.5537927354303432,0.5354257166033042
4.8500000000000005,0.043431539902289984,0.055571272515331185,3.916674515029964,0.5526235076250144,0.5388886730791993
4.9,0.02761624249777549,0.04007896527219512,3.917414729979652,0.5512111446782266,0.5420726885092417
4.95,0.011797760182189084,0.024560576731540433,3.917784381511624,0.5494306861548465,0.5448670869946994
5.0,-0.004019216294813135,0.009032187494889472,3.917784381511624,0.5472953087240622,0.5472953087240622
5.050000000000001,-0.01983131539164392,-0.006491413351397047,3.917414745075041,0.5448448363611522,0.5494082491584688
5.1000000000000005,-0.03563444827795094,-0.021994744126245667,3.9166745625518034,0.5420489420381883,0.5511869978806312
5.15,-0.051424408871383026,-0.03746223347332844,3.9155620203506314,0.5388986528425307,0.5526337417458875
5.2,-0.06719607106051877,-0.05287745162986469,3.9140744792552127,0.5353582616806911,0.5537229665624056
5.25,-0.08294978902329873,-0.06822937626328632,3.912207792064887,0.5316092315138699,0.5546547523820907
5.300000000000001,-0.0986771707573416,-0.08349850246545991,3.9099577864306094,0.5273514741477293,0.5551293214844917
5.3500000000000005,-0.11437521454204239,-0.09867068193784043,3.907318728693198,0.5227641146665707,0.5553450743877025
5.4,-0.13004379153968743,-0.11373460841353353,3.904283247235052,0.5179381927169887,0.5554132724471857
5.45,-0.14566988798861752,-0.12866668375405818,3.900845464456266,0.5124448610852329,0.5548866237862976
5.5,-0.16125668045168934,-0.14345902210011863,3.8969951451893774,0.5068161422432338,0.5543509480072902
5.550000000000001,-0.1768027068658141,-0.15809931784488285,3.8927216310854935,0.5008933488986945,0.553652782279978
5.6000000000000005,-0.19229928158260642,-0.17256858536324413,3.8880150742857045,0.49444096561166145,0.5525466051152281
5.65,-0.20773418914254926,-0.18684488963469625,3.882865991708557,0.4873505259416063,0.5509194466471345
5.7,-0.22312240881628548,-0.20093168469872816,3.8772544637678044,0.48047918412100105,0.5497573068463408
5.75,-0.23844227936911866,-0.21479870744713328,3.87117200649839,0.4726713250419062,0.5477633900964086
5.800000000000001,-0.2536953903056376,-0.22843743339955563,3.864600430462996,0.46465648951227917,0.5457870578504758
5.8500000000000005,-0.26888752552615175,-0.24184302661338183,3.8575175655195983,0.4565519109321926,0.543994688011177
5.9,-0.28400326825748196,-0.2549919647614943,3.849909308317907,0.4477138840059289,0.5416429852613788
5.95,-0.29905270998902567,-0.26788340546410544,3.841747344985311,0.43890213614634516,0.5396671155611159
6.0,-0.31402288820147345,-0.2804965718132476,3.8330134265520304,0.42943134143531636,0.5372574949326069
6.050000000000001,-0.3289004528381661,-0.2928111409831775,3.8236888004646885,0.41930386590889596,0.5344227064933609
6.1000000000000005,-0.34369862956160524,-0.3048292457141301,3.813736161960207,0.4092701525713303,0.5321422328735715
6.15,-0.3583915407799191,-0.31652111559640705,3.8031420458846688,0.39823762037142496,0.5290291768595546
6.2,-0.3730175814772674,-0.32790881274393446,3.7918444176785537,0.3879521667341387,0.5274290581676572
6.25,-0.387537697768005,-0.3389528384080676,3.7798365714280093,0.37632006281893615,0.5245650782577579
6.300000000000001,-0.4019553086836696,-0.3496480791820235,3.767077525265851,0.36448690685983126,0.5220059952815402
6.3500000000000005,-0.41626750720515426,-0.35998466333220974,3.753528693853841,0.35228065629758587,0.5195501799026493
6.4,-0.4304672973888865,-0.36995014058538217,3.7391530235143327,0.3396010480896787,0.5170784596885422
6.45,-0.44455215504449697,-0.37953574943395874,3.7239067758939814,0.3265596380072683,0.5147849172708625
6.5,-0.45854523534333064,-0.3887499259094921,3.7077137800298496,0.3137302268804932,0.513643756067305
6.550000000000001,-0.47240393242069895,-0.39755726127671576,3.6905706862929777,0.29962274336379546,0.5112658759177728
6.6000000000000005,-0.48613334345251236,-0.40595554160019326,3.6724177756828316,0.28533615309093047,0.509446160623598
6.65,-0.49975048243828146,-0.4139491553376373,3.6531742290711837,0.2710894019829652,0.5086640515094795
6.7,-0.5132454306212251,-0.4215257182664974,3.6327923576780004,0.25631849498565995,0.5079465368768147
6.75,-0.5265974092396268,-0.4286680942920483,3.611242016050628,0.24085683983652276,0.5069104401744543
6.800000000000001,-0.5398024674075691,-0.4353699896344437,3.588468183630645,0.22506050366062746,0.5062189285986847
6.8500000000000005,-0.5528927593451378,-0.44164295334953096,3.5643492082531547,0.20953001150476286,0.507295139621928
6.9,-0.5658434566350056,-0.44746925080972383,3.5388635620654334,0.19332134724216413,0.5079589544979801
6.95,-0.578612370321502,-0.45282683149270736,3.512035248450034,0.17630275762900563,0.5075165059672704
7.0,-0.5912579944267695,-0.4577380432172014,3.4836808361577214,0.15993158914688377,0.5099860618914829
7.050000000000001,-0.6037629670402533,-0.462190915088338,3.4537774436831867,0.14316734291253752,0.5123450277833345
7.1000000000000005,-0.6161439426172124,-0.46618672844903797,3.4222276410983414,0.1264779370087357,0.515981672624108
7.15,-0.6283644148154608,-0.4697091811172039,3.389077306801546,0.10939308509402867,0.5186564714742226
7.2,-0.6403715201640551,-0.47274294785561227,3.3544463398407673,0.09201720645297418,0.5195600084378931
7.25,-0.6522556889897866,-0.4753114447008597,3.3180553550535046,0.0755757138867411,0.5248471310134409
7.300000000000001,-0.6640061907960964,-0.47740676405240307,3.2799220088376133,0.059321465147283696,0.5301035171953243
7.35,-0.6755761251990473,-0.4790175126457227,3.240211435267571,0.04330557792380557,0.5335595726156884
7.4,-0.686996627070765,-0.4801474541475959,3.1988526947850113,0.028063671087108808,0.5386654054396925
7.45,-0.6982419486855523,-0.4807920663799057,3.1559980663890483,0.013583328923374424,0.5426528152932852
7.5,-0.7092696158122767,-0.48095093546651907,3.1119063970037346,0.00014553302645270877,0.5444871303760047
7.550000000000001,-0.7202108060095154,-0.48062603703986556,3.066160601952845,-0.012109523512616582,0.5526533783502212
7.6,-0.730986917291718,-0.4798116276092184,3.0192132204455113,-0.022963042829637962,0.5566342597300351
7.65,-0.7415565518074216,-0.4785116253136205,2.9714145413983077,-0.03210837150596011,0.5579987772249461
7.7,-0.7519365154564818,-0.47672793040629174,2.922885518942401,-0.03950991849104329,0.5596138155324947
7.75,-0.7622246386891129,-0.4744412685027187,2.8733670669155242,-0.04544280523810131,0.5658961086739578
7.800000000000001,-0.7722833053461902,-0.47167665657644514,2.8237323105124332,-0.048815150300504914,0.563959620108027
7.85,-0.782181890102448,-0.46841985933621266,2.7738723578081963,-0.05047895250951048,0.5650760191477351
7.9,-0.7918239627617129,-0.46470532011209165,2.7245018711535924,-0.049624496269273,0.5598876846517625
7.95,-0.8013123962370297,-0.46050111223426854,2.6753241337865292,-0.04731597648525027,0.5598165836019497
8.0,-0.8106419539687312,-0.4558057282684204,2.626566137439922,-0.043086754403058765,0.5588638177772748
8.05,-0.8197691135507879,-0.45063996950368695,2.578637928469238,-0.036899641138818835,0.5548066424498737
8.1,-0.8286691855966108,-0.4450233715564475,2.531834782610941,-0.029053078681172014,0.5487635368533591
8.15,-0.8373726627861692,-0.4389434834363278,2.4861391612862223,-0.01992955871889504,0.5442139144257773
8.200000000000001,-0.8458767931397192,-0.43240512165629835,2.441675905505943,-0.009598181982782682,0.5393309017243645
8.25,-0.8541895525411597,-0.4254045639499901,2.398486365141219,0.0017394351698824214,0.5349436372035098
8.3,-0.8622847520130618,-0.4179666796530438,2.356760403156275,0.013873785125791644,0.5290091182732484
8.35,-0.870146420881071,-0.41011390379397594,2.3166121414735494,0.02653646389464736,0.5221940155332354
8.4,-0.877818701379291,-0.40180887331007054,2.2778303982519748,0.03977988381440473,0.5185668371671788
8.450000000000001,-0.8852744904970055,-0.3930823714708139,2.2405385610553856,0.05320673152386595,0.5135997833336082
8.5,-0.8925136133779966,-0.3839401567543128,2.2047111971837077,0.06677578409742266,0.5090889183156672
8.55,-0.8995268582577739,-0.37439998804005964,2.1703533869115312,0.08027588592450943,0.5044463831118746
8.6,-0.9063192673164824,-0.36446210840365334,2.137390826943175,0.09374641581686549,0.5006916006113867
8.65,-0.9128706128492287,-0.3541640741913119,2.1058618949087267,0.10674268700899507,0.49598876150836096
8.700000000000001,-0.9192024052008021,-0.3434818660209372,2.075601978454539,0.11982215030802221,0.4934013657918187
8.75,-0.9252968099448932,-0.3324524438915406,2.0466261274949606,0.13227714994921536,0.49000370500573665
8.8,-0.9311631070193154,-0.3210686895112427,2.018821328918401,0.14457229320370127,0.4878414114328344
8.85,-0.9367999091798492,-0.30934053806673467,1.9921216906542285,0.15648173972286492,0.4861069034780803
8.9,-0.9422022483635807,-0.2972861355751896,1.9664779488669621,0.16786859321870815,0.48445799799977357
8.950000000000001,-0.9473683729056112,-0.28491846937529774,1.9418271797433502,0.1787800314223277,0.4831105144298821
9.0,-0.9522936511904908,-0.2722586987919819,1.9181218268672513,0.18908088733495687,0.4817395648176576
9.05,-0.9569745160382189,-0.25932815355514044,1.895312612083592,0.19875074414090024,0.48034598838361003
9.1,-0.9614241299774696,-0.24610136370717642,1.8732713078102536,0.2085148986744451,0.4806297662465232
9.15,-0.9656347408887906,-0.23260798446378328,1.8519694325850702,0.2175212998920899,0.48050741378324374
9.2,-0.9695991555303884,-0.2188819685807167,1.8313819577814139,0.22568374617444836,0.4798501017751431
9.25,-0.9733206601444775,-0.20492538669164298,1.8114354760978735,0.23352121932620856,0.4797740796168304
9.3,-0.9768041010745413,-0.19073010235934074,1.7920471861202811,0.24121906876455013,0.48058067342618416
9.35,-0.980038574003571,-0.17635039788354098,1.7732217930481666,0.24771945656465674,0.48013171671421917
9.4,-0.9830328117352686,-0.16176118505700565,1.7548592053408727,0.25438666606593,0.48108527973622445
